time,voltage
0.0,0.0
0.010582010582010581,-8.88888888888889
0.021164021164021163,-15.343915343915345
0.031746031746031744,-22.645502645502646
0.042328042328042326,-13.201058201058203
0.05291005291005291,-13.80952380952381
0.06349206349206349,-9.444444444444445
0.07407407407407407,-17.98941798941799
0.08465608465608465,-17.275132275132275
0.09523809523809523,-5.132275132275133
0.10582010582010581,-14.682539682539684
0.1164021164021164,0.0
0.12698412698412698,-0.07936507936507937
0.13756613756613756,-0.07936507936507937
0.14814814814814814,-0.10582010582010583
0.15873015873015872,-0.052910052910052914
0.1693121693121693,-0.1322751322751323
0.17989417989417988,-0.1322751322751323
0.19047619047619047,-23.201058201058203
0.20105820105820105,-23.227513227513228
0.21164021164021163,-0.10582010582010583
0.2222222222222222,-0.15873015873015875
0.2328042328042328,-0.1851851851851852
0.24338624338624337,-23.253968253968257
0.25396825396825395,-0.10582010582010583
0.26455026455026454,-0.15873015873015875
0.2751322751322751,-0.026455026455026457
0.2857142857142857,-23.201058201058203
0.2962962962962963,-0.026455026455026457
0.30687830687830686,0.0
0.31746031746031744,-0.15873015873015875
0.328042328042328,-0.1851851851851852
0.3386243386243386,-0.026455026455026457
0.3492063492063492,-23.201058201058203
0.35978835978835977,-0.1322751322751323
0.37037037037037035,-0.07936507936507937
0.38095238095238093,-0.15873015873015875
0.3915343915343915,-0.10582010582010583
0.4021164021164021,-0.026455026455026457
0.4126984126984127,-0.1851851851851852
0.42328042328042326,-23.253968253968257
0.43386243386243384,-0.052910052910052914
0.4444444444444444,0.0
0.455026455026455,-23.253968253968257
0.4656084656084656,-23.201058201058203
0.47619047619047616,-0.052910052910052914
0.48677248677248675,-23.201058201058203
0.4973544973544973,-0.07936507936507937
0.5079365079365079,-2.2222222222222223
0.5185185185185185,-2.2751322751322753
0.5291005291005291,-2.301587301587302
0.5396825396825397,-1.957671957671958
0.5502645502645502,-23.201058201058203
0.5608465608465608,-22.857142857142858
0.5714285714285714,-2.037037037037037
0.582010582010582,-0.1322751322751323
0.5925925925925926,-1.4021164021164023
0.6031746031746031,-22.91005291005291
0.6137566137566137,-0.07936507936507937
0.6243386243386243,-2.037037037037037
0.6349206349206349,-2.671957671957672
0.6455026455026455,-0.052910052910052914
0.656084656084656,-23.201058201058203
0.6666666666666666,-0.07936507936507937
0.6772486772486772,-23.201058201058203
0.6878306878306878,-2.195767195767196
0.6984126984126984,0.0
0.708994708994709,-2.301587301587302
0.7195767195767195,-10.873015873015873
0.7301587301587301,-19.841269841269842
0.7407407407407407,-23.253968253968257
0.7513227513227513,-2.3280423280423284
0.7619047619047619,-0.15873015873015875
0.7724867724867724,-10.185185185185185
0.783068783068783,-0.10582010582010583
0.7936507936507936,-2.619047619047619
0.8042328042328042,-10.211640211640212
0.8148148148148148,-14.814814814814817
0.8253968253968254,-20.105820105820108
0.8359788359788359,-15.476190476190478
0.8465608465608465,-22.91005291005291
0.8571428571428571,0.0
0.8677248677248677,-2.301587301587302
0.8783068783068783,-2.037037037037037
0.8888888888888888,-2.195767195767196
0.8994708994708994,-1.3227513227513228
0.91005291005291,-2.5132275132275135
0.9206349206349206,-0.1851851851851852
0.9312169312169312,-23.201058201058203
0.9417989417989417,-0.026455026455026457
0.9523809523809523,-23.253968253968257
0.9629629629629629,-1.4021164021164023
0.9735449735449735,-2.2751322751322753
0.9841269841269841,-22.883597883597886
0.9947089947089947,-23.253968253968257
1.0052910052910051,-1.4285714285714286
1.0158730158730158,-11.34920634920635
1.0264550264550265,-19.86772486772487
1.037037037037037,-1.5079365079365081
1.0476190476190474,-2.2751322751322753
1.0582010582010581,-2.2222222222222223
1.0687830687830688,-0.052910052910052914
1.0793650793650793,-19.94708994708995
1.0899470899470898,-11.216931216931219
1.1005291005291005,-0.10582010582010583
1.1111111111111112,0.0
1.1216931216931216,-1.3492063492063493
1.132275132275132,-19.894179894179896
1.1428571428571428,-0.1322751322751323
1.1534391534391535,-15.740740740740742
1.164021164021164,-15.793650793650794
1.1746031746031744,-20.132275132275133
1.1851851851851851,-15.740740740740742
1.1957671957671958,-0.10582010582010583
1.2063492063492063,-0.026455026455026457
1.2169312169312168,-0.07936507936507937
1.2275132275132274,-15.714285714285715
1.2380952380952381,-11.455026455026456
1.2486772486772486,-20.529100529100532
1.259259259259259,-6.613756613756614
1.2698412698412698,-22.91005291005291
1.2804232804232805,-20.449735449735453
1.291005291005291,-20.423280423280424
1.3015873015873014,-15.582010582010582
1.312169312169312,-22.91005291005291
1.3227513227513228,-2.2222222222222223
1.3333333333333333,-22.6984126984127
1.3439153439153437,-15.60846560846561
1.3544973544973544,-0.15873015873015875
1.3650793650793651,-20.02645502645503
1.3756613756613756,-0.07936507936507937
1.386243386243386,-2.5661375661375665
1.3968253968253967,-2.2222222222222223
1.4074074074074074,-22.77777777777778
1.417989417989418,-22.857142857142858
1.4285714285714284,-18.121693121693124
1.439153439153439,-23.253968253968257
1.4497354497354498,-6.931216931216932
1.4603174603174602,-0.026455026455026457
1.4708994708994707,-0.07936507936507937
1.4814814814814814,-15.793650793650794
1.492063492063492,-2.195767195767196
1.5026455026455026,-0.1322751322751323
1.513227513227513,-23.201058201058203
1.5238095238095237,-2.195767195767196
1.5343915343915344,-20.264550264550266
1.5449735449735449,-11.402116402116404
1.5555555555555554,-16.005291005291006
1.566137566137566,-16.005291005291006
1.5767195767195767,-23.253968253968257
1.5873015873015872,-0.1322751322751323
1.5978835978835977,-2.5661375661375665
1.6084656084656084,-15.952380952380954
1.619047619047619,-20.31746031746032
1.6296296296296295,-2.2751322751322753
1.64021164021164,-2.2222222222222223
1.6507936507936507,-0.1851851851851852
1.6613756613756614,-20.185185185185187
1.6719576719576719,-6.931216931216932
1.6825396825396823,-2.5132275132275135
1.693121693121693,-6.931216931216932
1.7037037037037037,-0.07936507936507937
1.7142857142857142,-2.2222222222222223
1.7248677248677247,-22.804232804232807
1.7354497354497354,-11.322751322751323
1.746031746031746,-2.037037037037037
1.7566137566137565,-15.76719576719577
1.767195767195767,-6.984126984126985
1.7777777777777777,-2.53968253968254
1.7883597883597884,-1.8783068783068784
1.7989417989417988,-2.592592592592593
1.8095238095238093,0.0
1.82010582010582,-2.5661375661375665
1.8306878306878307,-0.15873015873015875
1.8412698412698412,-6.957671957671958
1.8518518518518516,0.0
1.8624338624338623,-11.34920634920635
1.873015873015873,-0.026455026455026457
1.8835978835978835,-2.301587301587302
1.894179894179894,-2.3280423280423284
1.9047619047619047,-0.15873015873015875
1.9153439153439153,-6.957671957671958
1.9259259259259258,-0.10582010582010583
1.9365079365079363,-2.671957671957672
1.947089947089947,-20.132275132275133
1.9576719576719577,-23.227513227513228
1.9682539682539681,-0.052910052910052914
1.9788359788359786,-23.227513227513228
1.9894179894179893,-22.77777777777778
2.0,-15.793650793650794
2.0105820105820102,-20.132275132275133
2.021164021164021,-2.2751322751322753
2.0317460317460316,0.0
2.0423280423280423,-15.740740740740742
2.052910052910053,-0.1322751322751323
2.0634920634920633,-6.931216931216932
2.074074074074074,-15.740740740740742
2.0846560846560847,-0.15873015873015875
2.095238095238095,-0.15873015873015875
2.1058201058201056,-0.052910052910052914
2.1164021164021163,-2.037037037037037
2.126984126984127,-23.253968253968257
2.1375661375661377,-1.5343915343915344
2.148148148148148,-23.253968253968257
2.1587301587301586,-1.5343915343915344
2.1693121693121693,-6.984126984126985
2.1798941798941796,-22.804232804232807
2.1904761904761902,-0.026455026455026457
2.201058201058201,-2.037037037037037
2.2116402116402116,-1.5343915343915344
2.2222222222222223,-20.132275132275133
2.2328042328042326,-23.227513227513228
2.2433862433862433,-2.301587301587302
2.253968253968254,0.0
2.264550264550264,-11.534391534391535
2.275132275132275,-16.322751322751323
2.2857142857142856,-6.772486772486773
2.2962962962962963,-6.931216931216932
2.306878306878307,-20.476190476190478
2.317460317460317,-0.1322751322751323
2.328042328042328,-22.804232804232807
2.3386243386243386,-22.77777777777778
2.349206349206349,-0.052910052910052914
2.3597883597883595,-15.634920634920636
2.3703703703703702,-7.116402116402117
2.380952380952381,-7.116402116402117
2.3915343915343916,-20.105820105820108
2.402116402116402,-11.375661375661377
2.4126984126984126,-1.9312169312169314
2.4232804232804233,-0.052910052910052914
2.4338624338624335,-1.8783068783068784
2.444444444444444,-15.740740740740742
2.455026455026455,-11.402116402116404
2.4656084656084656,-20.15873015873016
2.4761904761904763,-2.195767195767196
2.4867724867724865,-0.026455026455026457
2.497354497354497,-15.76719576719577
2.507936507936508,-0.026455026455026457
2.518518518518518,-11.428571428571429
2.529100529100529,-11.402116402116404
2.5396825396825395,-0.10582010582010583
2.5502645502645502,-15.873015873015873
2.560846560846561,-6.931216931216932
2.571428571428571,-2.3280423280423284
2.582010582010582,-2.2222222222222223
2.5925925925925926,-0.1322751322751323
2.603174603174603,-2.2222222222222223
2.6137566137566135,-0.1322751322751323
2.624338624338624,-0.15873015873015875
2.634920634920635,-2.301587301587302
2.6455026455026456,-22.724867724867728
2.656084656084656,-15.925925925925927
2.6666666666666665,-0.10582010582010583
2.677248677248677,-20.29100529100529
2.6878306878306875,0.0
2.698412698412698,-0.1851851851851852
2.708994708994709,-23.227513227513228
2.7195767195767195,-0.052910052910052914
2.7301587301587302,-0.15873015873015875
2.7407407407407405,-2.195767195767196
2.751322751322751,-22.751322751322753
2.761904761904762,-15.846560846560848
2.772486772486772,-23.201058201058203
2.783068783068783,-2.2222222222222223
2.7936507936507935,-0.026455026455026457
2.804232804232804,-20.23809523809524
2.814814814814815,-0.1322751322751323
2.825396825396825,-22.77777777777778
2.835978835978836,-23.253968253968257
2.8465608465608465,-1.5079365079365081
2.8571428571428568,-0.1322751322751323
2.8677248677248675,-0.07936507936507937
2.878306878306878,-23.201058201058203
2.888888888888889,-20.211640211640212
2.8994708994708995,-0.10582010582010583
2.91005291005291,-11.481481481481483
2.9206349206349205,-0.10582010582010583
2.931216931216931,-23.201058201058203
2.9417989417989414,-0.1322751322751323
2.952380952380952,0.0
2.962962962962963,-2.195767195767196
2.9735449735449735,-20.23809523809524
2.984126984126984,-0.026455026455026457
2.9947089947089944,-22.91005291005291
3.005291005291005,-11.50793650793651
3.015873015873016,-2.301587301587302
3.026455026455026,-23.201058201058203
3.0370370370370368,-20.23809523809524
3.0476190476190474,-23.227513227513228
3.058201058201058,-0.026455026455026457
3.068783068783069,-0.07936507936507937
3.079365079365079,-2.195767195767196
3.0899470899470898,-2.2751322751322753
3.1005291005291005,-23.227513227513228
3.1111111111111107,-20.185185185185187
3.1216931216931214,-2.3280423280423284
3.132275132275132,-15.793650793650794
3.142857142857143,-2.2751322751322753
3.1534391534391535,-2.301587301587302
3.1640211640211637,-23.227513227513228
3.1746031746031744,-0.026455026455026457
3.185185185185185,-15.76719576719577
3.1957671957671954,-2.301587301587302
3.206349206349206,-0.07936507936507937
3.2169312169312168,-2.2222222222222223
3.2275132275132274,-22.857142857142858
3.238095238095238,-0.15873015873015875
3.2486772486772484,0.0
3.259259259259259,-2.2222222222222223
3.2698412698412698,-0.1322751322751323
3.28042328042328,-15.846560846560848
3.2910052910052907,-6.957671957671958
3.3015873015873014,-6.71957671957672
3.312169312169312,-6.71957671957672
3.322751322751323,-2.3280423280423284
3.333333333333333,-20.15873015873016
3.3439153439153437,-7.301587301587302
3.3544973544973544,-15.60846560846561
3.3650793650793647,-0.10582010582010583
3.3756613756613754,-22.77777777777778
3.386243386243386,-22.77777777777778
3.3968253968253967,-0.15873015873015875
3.4074074074074074,-7.142857142857143
3.4179894179894177,-0.10582010582010583
3.4285714285714284,-2.2222222222222223
3.439153439153439,-22.751322751322753
3.4497354497354493,-2.301587301587302
3.46031746031746,-11.428571428571429
3.4708994708994707,-0.052910052910052914
3.4814814814814814,-23.253968253968257
3.492063492063492,-20.15873015873016
3.5026455026455023,-20.079365079365083
3.513227513227513,-23.227513227513228
3.5238095238095237,-11.375661375661377
3.534391534391534,-15.687830687830688
3.5449735449735447,-2.3280423280423284
3.5555555555555554,-6.957671957671958
3.566137566137566,-0.1851851851851852
3.5767195767195767,-15.952380952380954
3.587301587301587,-23.253968253968257
3.5978835978835977,-15.97883597883598
3.6084656084656084,-20.37037037037037
3.6190476190476186,-6.851851851851852
3.6296296296296293,-0.15873015873015875
3.64021164021164,-2.2751322751322753
3.6507936507936507,-20.23809523809524
3.6613756613756614,-0.15873015873015875
3.6719576719576716,-2.301587301587302
3.6825396825396823,-0.10582010582010583
3.693121693121693,-11.243386243386244
3.7037037037037033,-22.77777777777778
3.714285714285714,0.0
3.7248677248677247,-11.243386243386244
3.7354497354497354,-0.1851851851851852
3.746031746031746,-23.201058201058203
3.7566137566137563,-2.301587301587302
3.767195767195767,-20.0
3.7777777777777777,-15.661375661375663
3.788359788359788,-23.201058201058203
3.7989417989417986,-0.1322751322751323
3.8095238095238093,-0.1851851851851852
3.82010582010582,-23.201058201058203
3.8306878306878307,-11.296296296296298
3.841269841269841,-6.957671957671958
3.8518518518518516,-11.26984126984127
3.8624338624338623,-11.216931216931219
3.8730158730158726,-16.34920634920635
3.8835978835978833,-6.798941798941799
3.894179894179894,-15.60846560846561
3.9047619047619047,-11.26984126984127
3.9153439153439153,-1.4814814814814816
3.9259259259259256,-0.026455026455026457
3.9365079365079363,-20.132275132275133
3.947089947089947,-20.079365079365083
3.9576719576719572,-7.037037037037037
3.968253968253968,-0.1322751322751323
3.9788359788359786,-2.2751322751322753
3.9894179894179893,-6.613756613756614
4.0,-11.111111111111112
4.01058201058201,-0.15873015873015875
4.0211640211640205,-11.243386243386244
4.031746031746032,-0.052910052910052914
4.042328042328042,-15.634920634920636
4.052910052910053,-2.195767195767196
4.063492063492063,-2.2751322751322753
4.0740740740740735,-2.301587301587302
4.084656084656085,-20.105820105820108
4.095238095238095,-23.201058201058203
4.105820105820106,-6.772486772486773
4.116402116402116,-8.544973544973546
4.1269841269841265,-11.005291005291006
4.137566137566138,-6.746031746031747
4.148148148148148,-0.1322751322751323
4.158730158730158,-2.2222222222222223
4.169312169312169,-11.402116402116404
4.1798941798941796,-0.07936507936507937
4.19047619047619,-2.2222222222222223
4.201058201058201,-23.201058201058203
4.211640211640211,-2.3280423280423284
4.222222222222222,-2.2751322751322753
4.232804232804233,-2.301587301587302
4.243386243386243,-15.634920634920636
4.253968253968254,0.0
4.264550264550264,-20.079365079365083
4.275132275132275,-2.2751322751322753
4.285714285714286,-15.60846560846561
4.296296296296296,-0.026455026455026457
4.306878306878307,-15.634920634920636
4.317460317460317,-0.052910052910052914
4.3280423280423275,-20.740740740740744
4.338624338624339,-0.10582010582010583
4.349206349206349,-20.66137566137566
4.359788359788359,-20.132275132275133
4.37037037037037,0.0
4.3809523809523805,-15.661375661375663
4.391534391534392,-23.227513227513228
4.402116402116402,-2.301587301587302
4.412698412698412,-15.60846560846561
4.423280423280423,-6.984126984126985
4.4338624338624335,-2.195767195767196
4.444444444444445,-15.793650793650794
4.455026455026455,-0.026455026455026457
4.465608465608465,-7.08994708994709
4.476190476190476,-7.063492063492064
4.4867724867724865,-20.02645502645503
4.497354497354497,-2.301587301587302
4.507936507936508,-0.07936507936507937
4.518518518518518,-20.052910052910054
4.529100529100528,-23.227513227513228
4.5396825396825395,-15.661375661375663
4.55026455026455,-20.105820105820108
4.560846560846561,-22.857142857142858
4.571428571428571,-11.34920634920635
4.582010582010581,-23.227513227513228
4.592592592592593,-2.2222222222222223
4.603174603174603,-23.253968253968257
4.613756613756614,-22.6984126984127
4.624338624338624,-20.29100529100529
4.634920634920634,-1.4814814814814816
4.645502645502646,-0.1322751322751323
4.656084656084656,-20.29100529100529
4.666666666666666,-20.31746031746032
4.677248677248677,-2.301587301587302
4.6878306878306875,-0.10582010582010583
4.698412698412698,-11.26984126984127
4.708994708994709,-11.243386243386244
4.719576719576719,-15.714285714285715
4.73015873015873,-0.026455026455026457
4.7407407407407405,-2.2222222222222223
4.751322751322751,-7.063492063492064
4.761904761904762,0.0
4.772486772486772,-0.026455026455026457
4.783068783068783,-20.15873015873016
4.7936507936507935,-7.08994708994709
4.804232804232804,-11.322751322751323
4.814814814814815,-0.052910052910052914
4.825396825396825,-7.037037037037037
4.835978835978835,-2.2751322751322753
4.8465608465608465,-15.714285714285715
4.857142857142857,-0.026455026455026457
4.867724867724867,-15.740740740740742
4.878306878306878,-20.132275132275133
4.888888888888888,-6.984126984126985
4.8994708994708995,-7.037037037037037
4.91005291005291,-2.3280423280423284
4.92063492063492,-0.1851851851851852
4.931216931216931,-23.253968253968257
4.941798941798941,-6.957671957671958
4.9523809523809526,-20.132275132275133
4.962962962962963,0.0
4.973544973544973,-0.026455026455026457
4.984126984126984,-6.957671957671958
4.994708994708994,-23.227513227513228
5.005291005291005,-0.026455026455026457
5.015873015873016,-11.375661375661377
5.026455026455026,-15.793650793650794
5.037037037037036,-2.2751322751322753
5.0476190476190474,-2.195767195767196
5.058201058201058,-0.052910052910052914
5.068783068783069,-0.026455026455026457
5.079365079365079,-15.76719576719577
5.089947089947089,-15.76719576719577
5.1005291005291005,-20.185185185185187
5.111111111111111,-7.010582010582011
5.121693121693122,-15.76719576719577
5.132275132275132,-0.1851851851851852
5.142857142857142,-2.2751322751322753
5.1534391534391535,-0.15873015873015875
5.164021164021164,-0.026455026455026457
5.174603174603174,-23.227513227513228
5.185185185185185,-15.76719576719577
5.195767195767195,-15.793650793650794
5.206349206349206,0.0
5.216931216931217,-23.253968253968257
5.227513227513227,-0.15873015873015875
5.238095238095238,0.0
5.248677248677248,-6.984126984126985
5.259259259259259,-20.15873015873016
5.26984126984127,-0.07936507936507937
5.28042328042328,-2.301587301587302
5.291005291005291,-0.15873015873015875
5.301587301587301,-15.76719576719577
5.312169312169312,-0.052910052910052914
5.322751322751323,-0.15873015873015875
5.333333333333333,-20.105820105820108
5.343915343915343,-20.37037037037037
5.354497354497354,-20.76719576719577
5.365079365079365,-10.97883597883598
5.375661375661375,-0.1322751322751323
5.386243386243386,-20.820105820105823
5.396825396825396,-16.190476190476193
5.407407407407407,-15.8994708994709
5.417989417989418,-23.253968253968257
5.428571428571428,-2.301587301587302
5.439153439153439,-23.253968253968257
5.449735449735449,-0.026455026455026457
5.4603174603174605,-2.2222222222222223
5.470899470899471,-2.3280423280423284
5.481481481481481,-2.195767195767196
5.492063492063492,-6.931216931216932
5.502645502645502,-2.301587301587302
5.513227513227513,-0.026455026455026457
5.523809523809524,-0.052910052910052914
5.534391534391534,-11.375661375661377
5.544973544973544,-2.3280423280423284
5.555555555555555,-20.15873015873016
5.566137566137566,-0.052910052910052914
5.576719576719577,-0.10582010582010583
5.587301587301587,-0.07936507936507937
5.597883597883597,0.0
5.608465608465608,-15.873015873015873
5.619047619047619,-0.052910052910052914
5.62962962962963,-2.301587301587302
5.64021164021164,-11.26984126984127
5.65079365079365,-2.2751322751322753
5.661375661375661,-15.952380952380954
5.671957671957672,-0.1851851851851852
5.682539682539682,-0.15873015873015875
5.693121693121693,-11.137566137566138
5.703703703703703,-0.15873015873015875
5.7142857142857135,-15.952380952380954
5.724867724867725,-11.190476190476192
5.735449735449735,-2.301587301587302
5.746031746031746,-0.07936507936507937
5.756613756613756,-20.23809523809524
5.7671957671957665,-2.3280423280423284
5.777777777777778,-0.052910052910052914
5.788359788359788,-20.211640211640212
5.798941798941799,-23.253968253968257
5.809523809523809,-11.402116402116404
5.82010582010582,-2.3280423280423284
5.830687830687831,-2.195767195767196
5.841269841269841,0.0
5.851851851851851,-20.185185185185187
5.862433862433862,-23.201058201058203
5.873015873015873,-11.428571428571429
5.883597883597883,-6.931216931216932
5.894179894179894,-2.2222222222222223
5.904761904761904,-20.15873015873016
5.915343915343915,-20.185185185185187
5.925925925925926,-0.052910052910052914
5.936507936507936,-0.026455026455026457
5.947089947089947,-2.301587301587302
5.957671957671957,-2.301587301587302
5.968253968253968,-2.301587301587302
5.978835978835979,-2.2751322751322753
5.989417989417989,-0.15873015873015875
6.0,-6.904761904761905
6.01058201058201,-2.2751322751322753
6.0211640211640205,-20.211640211640212
6.031746031746032,-2.2751322751322753
6.042328042328042,-23.227513227513228
6.052910052910052,-2.2751322751322753
6.063492063492063,-15.793650793650794
6.0740740740740735,-20.23809523809524
6.084656084656085,-20.211640211640212
6.095238095238095,-2.195767195767196
6.105820105820105,-2.301587301587302
6.116402116402116,-1.5873015873015874
6.1269841269841265,-0.052910052910052914
6.137566137566138,-0.1322751322751323
6.148148148148148,-11.428571428571429
6.158730158730158,-0.15873015873015875
6.169312169312169,-20.185185185185187
6.1798941798941796,-15.846560846560848
6.19047619047619,-0.052910052910052914
6.201058201058201,-15.76719576719577
6.211640211640211,-0.07936507936507937
6.222222222222221,-0.07936507936507937
6.232804232804233,-0.10582010582010583
6.243386243386243,-15.820105820105821
6.253968253968254,-0.10582010582010583
6.264550264550264,-0.8730158730158731
6.2751322751322745,-15.820105820105821
6.285714285714286,-23.201058201058203
6.296296296296296,-2.195767195767196
6.306878306878307,-1.0317460317460319
6.317460317460317,-0.10582010582010583
6.3280423280423275,-2.195767195767196
6.338624338624339,-1.0846560846560847
6.349206349206349,0.0
6.359788359788359,-23.253968253968257
6.37037037037037,-0.026455026455026457
6.3809523809523805,-0.1851851851851852
6.391534391534391,-16.03174603174603
6.402116402116402,-0.8730158730158731
6.412698412698412,-20.820105820105823
6.423280423280423,-6.71957671957672
6.4338624338624335,-16.402116402116402
6.444444444444444,-16.005291005291006
6.455026455026455,-20.31746031746032
6.465608465608465,-6.71957671957672
6.476190476190476,-6.746031746031747
6.4867724867724865,-6.772486772486773
6.497354497354497,-0.10582010582010583
6.507936507936508,-6.851851851851852
6.518518518518518,-20.15873015873016
6.529100529100528,-0.15873015873015875
6.5396825396825395,-15.820105820105821
6.55026455026455,-2.301587301587302
6.56084656084656,-0.07936507936507937
6.571428571428571,-1.4285714285714286
6.582010582010581,-23.253968253968257
6.592592592592593,-1.0846560846560847
6.603174603174603,-15.820105820105821
6.613756613756613,-0.1322751322751323
6.624338624338624,-0.1851851851851852
6.634920634920634,-15.846560846560848
6.645502645502646,-0.1851851851851852
6.656084656084656,-2.195767195767196
6.666666666666666,-0.07936507936507937
6.677248677248677,-0.026455026455026457
6.6878306878306875,-0.8465608465608466
6.698412698412698,-11.26984126984127
6.708994708994709,-0.026455026455026457
6.719576719576719,-15.8994708994709
6.730158730158729,-20.343915343915345
6.7407407407407405,-15.396825396825397
6.751322751322751,-14.41798941798942
6.761904761904762,-12.671957671957673
6.772486772486772,-0.1322751322751323
6.783068783068782,-7.142857142857143
6.7936507936507935,-15.502645502645503
6.804232804232804,-20.23809523809524
6.814814814814815,-23.201058201058203
6.825396825396825,-7.010582010582011
6.835978835978835,-15.740740740740742
6.8465608465608465,-2.2751322751322753
6.857142857142857,-23.253968253968257
6.867724867724867,-0.07936507936507937
6.878306878306878,-0.1322751322751323
6.888888888888888,-0.07936507936507937
6.899470899470899,-0.052910052910052914
6.91005291005291,-11.26984126984127
6.92063492063492,-0.1851851851851852
6.931216931216931,-1.3756613756613758
6.941798941798941,-6.957671957671958
6.952380952380952,-0.07936507936507937
6.962962962962963,-0.925925925925926
6.973544973544973,-2.301587301587302
6.984126984126984,-0.15873015873015875
6.994708994708994,-11.402116402116404
7.005291005291005,-0.15873015873015875
7.015873015873016,-20.132275132275133
7.026455026455026,-0.15873015873015875
7.037037037037036,-0.10582010582010583
7.0476190476190474,-0.026455026455026457
7.058201058201058,-1.4550264550264551
7.068783068783068,-0.9523809523809524
7.079365079365079,-0.7407407407407408
7.089947089947089,-0.052910052910052914
7.1005291005291005,-20.132275132275133
7.111111111111111,-23.253968253968257
7.121693121693121,-6.931216931216932
7.132275132275132,-15.793650793650794
7.142857142857142,-15.820105820105821
7.1534391534391535,-6.931216931216932
7.164021164021164,-2.301587301587302
7.174603174603174,-1.4021164021164023
7.185185185185185,0.0
7.195767195767195,-23.253968253968257
7.206349206349206,-0.7407407407407408
7.216931216931217,-2.2222222222222223
7.227513227513227,-0.1322751322751323
7.238095238095237,-0.07936507936507937
7.248677248677248,-14.814814814814817
7.259259259259259,-2.195767195767196
7.26984126984127,-2.3280423280423284
7.28042328042328,-0.1322751322751323
7.29100529100529,-2.3280423280423284
7.301587301587301,-11.402116402116404
7.312169312169312,-1.4814814814814816
7.322751322751323,-2.195767195767196
7.333333333333333,-0.9523809523809524
7.343915343915343,-23.253968253968257
7.354497354497354,-0.8201058201058201
7.365079365079365,-1.0582010582010584
7.375661375661375,-11.428571428571429
7.386243386243386,-6.931216931216932
7.396825396825396,-0.052910052910052914
7.4074074074074066,-11.402116402116404
7.417989417989418,-23.253968253968257
7.428571428571428,-20.079365079365083
7.439153439153439,-0.15873015873015875
7.449735449735449,-6.904761904761905
7.46031746031746,-0.10582010582010583
7.470899470899471,-0.6878306878306879
7.481481481481481,-11.084656084656086
7.492063492063492,-20.68783068783069
7.502645502645502,-15.846560846560848
7.513227513227513,-11.50793650793651
7.523809523809524,-19.94708994708995
7.534391534391534,-11.481481481481483
7.544973544973544,-19.86772486772487
7.555555555555555,-6.640211640211641
7.566137566137566,-1.4021164021164023
7.576719576719576,-0.07936507936507937
7.587301587301587,-0.1322751322751323
7.597883597883597,-6.931216931216932
7.608465608465608,-6.957671957671958
7.619047619047619,-20.105820105820108
7.629629629629629,-15.820105820105821
7.64021164021164,-2.2751322751322753
7.65079365079365,-0.1851851851851852
7.661375661375661,-2.2222222222222223
7.671957671957672,-15.873015873015873
7.682539682539682,0.0
7.693121693121693,-13.994708994708995
7.703703703703703,-2.2222222222222223
7.7142857142857135,-0.1851851851851852
7.724867724867725,-7.08994708994709
7.735449735449735,-23.253968253968257
7.746031746031745,0.0
7.756613756613756,-0.052910052910052914
7.7671957671957665,-2.2222222222222223
7.777777777777778,-7.222222222222223
7.788359788359788,-0.026455026455026457
7.798941798941798,-23.201058201058203
7.809523809523809,-20.343915343915345
7.82010582010582,-7.301587301587302
7.830687830687831,-0.052910052910052914
7.841269841269841,-23.227513227513228
7.851851851851851,-0.10582010582010583
7.862433862433862,-2.3280423280423284
7.873015873015873,-15.846560846560848
7.883597883597883,-7.142857142857143
7.894179894179894,-0.10582010582010583
7.904761904761904,-20.052910052910054
7.9153439153439145,-23.227513227513228
7.925925925925926,-0.10582010582010583
7.936507936507936,0.0
7.947089947089947,-1.5079365079365081
7.957671957671957,-11.375661375661377
7.9682539682539675,-20.02645502645503
7.978835978835979,-2.3280423280423284
7.989417989417989,0.0
8.0,-7.037037037037037
8.01058201058201,-23.227513227513228
8.02116402116402,-20.079365079365083
8.031746031746032,-20.02645502645503
8.042328042328041,-0.15873015873015875
8.052910052910052,-20.02645502645503
8.063492063492063,-7.037037037037037
8.074074074074074,-0.026455026455026457
8.084656084656084,-0.10582010582010583
8.095238095238095,-2.2222222222222223
8.105820105820106,-11.375661375661377
8.116402116402115,-15.793650793650794
8.126984126984127,-15.820105820105821
8.137566137566138,-0.1851851851851852
8.148148148148147,-23.253968253968257
8.158730158730158,-23.201058201058203
8.16931216931217,-15.820105820105821
8.179894179894179,-11.375661375661377
8.19047619047619,-0.1851851851851852
8.201058201058201,-2.2751322751322753
8.211640211640212,0.0
8.222222222222221,-0.1322751322751323
8.232804232804233,-0.15873015873015875
8.243386243386244,-2.2751322751322753
8.253968253968253,-0.1851851851851852
8.264550264550264,-1.3756613756613758
8.275132275132275,-23.201058201058203
8.285714285714285,-2.195767195767196
8.296296296296296,-7.010582010582011
8.306878306878307,-2.195767195767196
8.317460317460316,-2.195767195767196
8.328042328042327,-23.227513227513228
8.338624338624339,-0.07936507936507937
8.349206349206348,0.0
8.359788359788359,-2.2751322751322753
8.37037037037037,-2.2222222222222223
8.38095238095238,-0.15873015873015875
8.39153439153439,-11.375661375661377
8.402116402116402,-2.195767195767196
8.412698412698413,-0.026455026455026457
8.423280423280422,-0.1851851851851852
8.433862433862434,-0.07936507936507937
8.444444444444445,-1.3492063492063493
8.455026455026454,-15.820105820105821
8.465608465608465,0.0
8.476190476190476,-20.132275132275133
8.486772486772486,-2.2222222222222223
8.497354497354497,-15.76719576719577
8.507936507936508,0.0
8.518518518518517,-1.5079365079365081
8.529100529100528,-2.2222222222222223
8.53968253968254,-20.820105820105823
8.55026455026455,-15.582010582010582
8.56084656084656,-16.005291005291006
8.571428571428571,-20.37037037037037
8.582010582010582,-2.301587301587302
8.592592592592592,-15.687830687830688
8.603174603174603,-6.534391534391535
8.613756613756614,-0.07936507936507937
8.624338624338623,-2.195767195767196
8.634920634920634,-23.253968253968257
8.645502645502646,-20.052910052910054
8.656084656084655,-2.2751322751322753
8.666666666666666,-15.76719576719577
8.677248677248677,-20.15873015873016
8.687830687830687,-0.052910052910052914
8.698412698412698,-20.15873015873016
8.708994708994709,-23.201058201058203
8.719576719576718,-11.34920634920635
8.73015873015873,-0.15873015873015875
8.74074074074074,-0.10582010582010583
8.751322751322752,-0.052910052910052914
8.761904761904761,-23.227513227513228
8.772486772486772,-0.07936507936507937
8.783068783068783,-23.201058201058203
8.793650793650793,-2.2222222222222223
8.804232804232804,-0.1851851851851852
8.814814814814815,-7.08994708994709
8.825396825396824,-2.195767195767196
8.835978835978835,0.0
8.846560846560847,-20.3968253968254
8.857142857142856,-2.2222222222222223
8.867724867724867,-0.052910052910052914
8.878306878306878,-2.195767195767196
8.88888888888889,-0.15873015873015875
8.899470899470899,-0.10582010582010583
8.91005291005291,-11.34920634920635
8.920634920634921,-15.8994708994709
8.93121693121693,-11.296296296296298
8.941798941798941,-0.10582010582010583
8.952380952380953,-0.10582010582010583
8.962962962962962,-0.052910052910052914
8.973544973544973,-6.931216931216932
8.984126984126984,-15.687830687830688
8.994708994708994,-6.957671957671958
9.005291005291005,-23.201058201058203
9.015873015873016,-0.07936507936507937
9.026455026455025,-6.931216931216932
9.037037037037036,-0.026455026455026457
9.047619047619047,-1.4021164021164023
9.058201058201057,-23.227513227513228
9.068783068783068,-0.07936507936507937
9.079365079365079,-15.687830687830688
9.08994708994709,-23.253968253968257
9.1005291005291,-23.227513227513228
9.11111111111111,-1.2962962962962965
9.121693121693122,-0.026455026455026457
9.132275132275131,-15.740740740740742
9.142857142857142,-11.322751322751323
9.153439153439153,-20.23809523809524
9.164021164021163,-11.322751322751323
9.174603174603174,-2.3280423280423284
9.185185185185185,-0.026455026455026457
9.195767195767194,-0.07936507936507937
9.206349206349206,-6.957671957671958
9.216931216931217,-23.201058201058203
9.227513227513228,-2.2751322751322753
9.238095238095237,-2.3280423280423284
9.248677248677248,-3.8888888888888893
9.25925925925926,-2.2222222222222223
9.269841269841269,-0.15873015873015875
9.28042328042328,-23.201058201058203
9.291005291005291,-2.301587301587302
9.3015873015873,-11.375661375661377
9.312169312169312,-15.740740740740742
9.322751322751323,-2.3280423280423284
9.333333333333332,-1.4550264550264551
9.343915343915343,-15.76719576719577
9.354497354497354,-1.3756613756613758
9.365079365079364,-20.15873015873016
9.375661375661375,-1.5343915343915344
9.386243386243386,-2.3280423280423284
9.396825396825395,-0.1322751322751323
9.407407407407407,-4.1534391534391535
9.417989417989418,-4.074074074074074
9.428571428571429,-6.984126984126985
9.439153439153438,-6.984126984126985
9.44973544973545,-23.253968253968257
9.46031746031746,-1.3756613756613758
9.47089947089947,-6.984126984126985
9.481481481481481,0.0
9.492063492063492,-2.9629629629629632
9.502645502645501,-3.5185185185185186
9.513227513227513,-20.23809523809524
9.523809523809524,-3.0158730158730163
9.534391534391533,-0.052910052910052914
9.544973544973544,-4.126984126984127
9.555555555555555,-0.1851851851851852
9.566137566137566,-1.5079365079365081
9.576719576719576,-2.2222222222222223
9.587301587301587,-15.370370370370372
9.597883597883598,-3.6243386243386246
9.608465608465607,-15.793650793650794
9.619047619047619,-14.126984126984128
9.62962962962963,-12.671957671957673
9.64021164021164,-3.9682539682539684
9.65079365079365,-1.4814814814814816
9.661375661375661,-0.10582010582010583
9.67195767195767,-3.068783068783069
9.682539682539682,-1.4285714285714286
9.693121693121693,-11.216931216931219
9.703703703703702,-20.132275132275133
9.714285714285714,-6.666666666666667
9.724867724867725,-15.873015873015873
9.735449735449734,-20.185185185185187
9.746031746031745,-15.846560846560848
9.756613756613756,-6.772486772486773
9.767195767195767,-11.481481481481483
9.777777777777777,-6.666666666666667
9.788359788359788,-0.026455026455026457
9.798941798941799,-6.825396825396826
9.809523809523808,-0.10582010582010583
9.82010582010582,-3.0952380952380953
9.83068783068783,-0.052910052910052914
9.84126984126984,-23.253968253968257
9.851851851851851,-4.1005291005291005
9.862433862433862,-23.201058201058203
9.873015873015872,-0.1322751322751323
9.883597883597883,-11.560846560846562
9.894179894179894,-0.1322751322751323
9.904761904761905,-23.201058201058203
9.915343915343914,-2.195767195767196
9.925925925925926,0.0
9.936507936507937,0.0
9.947089947089946,-15.793650793650794
9.957671957671957,-23.227513227513228
9.968253968253968,-0.026455026455026457
9.978835978835978,-11.375661375661377
9.989417989417989,-4.074074074074074
10.0,-11.34920634920635
10.01058201058201,-3.9682539682539684
10.02116402116402,-23.201058201058203
10.031746031746032,-11.34920634920635
10.042328042328041,-0.052910052910052914
10.052910052910052,0.0
10.063492063492063,-23.253968253968257
10.074074074074073,-3.915343915343916
10.084656084656084,-0.07936507936507937
10.095238095238095,-11.375661375661377
10.105820105820106,-3.8888888888888893
10.116402116402115,-11.34920634920635
10.126984126984127,-0.15873015873015875
10.137566137566138,-23.227513227513228
10.148148148148147,-15.793650793650794
10.158730158730158,-4.047619047619048
10.16931216931217,-0.1851851851851852
10.179894179894179,-6.984126984126985
10.19047619047619,-2.3280423280423284
10.201058201058201,-0.10582010582010583
10.21164021164021,-3.9682539682539684
10.222222222222221,-23.227513227513228
10.232804232804233,-23.201058201058203
10.243386243386244,-3.994708994708995
10.253968253968253,-11.402116402116404
10.264550264550264,-0.026455026455026457
10.275132275132275,-6.984126984126985
10.285714285714285,-2.2751322751322753
10.296296296296296,-20.105820105820108
10.306878306878307,-11.375661375661377
10.317460317460316,-6.984126984126985
10.328042328042327,-0.052910052910052914
10.338624338624339,-7.037037037037037
10.349206349206348,-20.079365079365083
10.359788359788359,-0.07936507936507937
10.37037037037037,-4.074074074074074
10.38095238095238,-2.2751322751322753
10.39153439153439,-2.195767195767196
10.402116402116402,-0.026455026455026457
10.412698412698411,-7.037037037037037
10.423280423280422,-0.052910052910052914
10.433862433862434,-15.76719576719577
10.444444444444445,-2.3280423280423284
10.455026455026454,-20.02645502645503
10.465608465608465,-3.994708994708995
10.476190476190476,-11.34920634920635
10.486772486772486,-15.740740740740742
10.497354497354497,-3.8888888888888893
10.507936507936508,-0.026455026455026457
10.518518518518517,-0.1851851851851852
10.529100529100528,-2.2751322751322753
10.53968253968254,-20.052910052910054
10.550264550264549,-11.904761904761905
10.56084656084656,-20.052910052910054
10.571428571428571,-0.1322751322751323
10.582010582010582,-2.301587301587302
10.592592592592592,-0.052910052910052914
10.603174603174603,-7.116402116402117
10.613756613756614,-15.714285714285715
10.624338624338623,-0.10582010582010583
10.634920634920634,-15.634920634920636
10.645502645502646,-10.8994708994709
10.656084656084655,-11.455026455026456
10.666666666666666,-15.925925925925927
10.677248677248677,-7.328042328042328
10.687830687830687,-2.3280423280423284
10.698412698412698,-16.05820105820106
10.708994708994709,-22.830687830687832
10.719576719576718,-3.994708994708995
10.73015873015873,-0.07936507936507937
10.74074074074074,-15.873015873015873
10.75132275132275,-11.402116402116404
10.761904761904761,-0.026455026455026457
10.772486772486772,-3.994708994708995
10.783068783068783,-7.08994708994709
10.793650793650793,-0.1322751322751323
10.804232804232804,-23.227513227513228
10.814814814814815,-0.15873015873015875
10.825396825396824,-0.026455026455026457
10.835978835978835,-2.2222222222222223
10.846560846560847,-23.253968253968257
10.857142857142856,-2.2751322751322753
10.867724867724867,-0.026455026455026457
10.878306878306878,-7.142857142857143
10.888888888888888,-15.793650793650794
10.899470899470899,-11.375661375661377
10.91005291005291,-7.248677248677249
10.920634920634921,-0.07936507936507937
10.93121693121693,-23.253968253968257
10.941798941798941,-19.814814814814817
10.952380952380953,-0.10582010582010583
10.962962962962962,-20.29100529100529
10.973544973544973,-0.1322751322751323
10.984126984126984,-23.227513227513228
10.994708994708994,-20.29100529100529
11.005291005291005,-2.2751322751322753
11.015873015873016,-22.724867724867728
11.026455026455025,-0.07936507936507937
11.037037037037036,-11.296296296296298
11.047619047619047,-23.201058201058203
11.058201058201057,-0.07936507936507937
11.068783068783068,-2.2751322751322753
11.079365079365079,-20.132275132275133
11.089947089947088,-0.052910052910052914
11.1005291005291,-0.10582010582010583
11.11111111111111,-23.253968253968257
11.121693121693122,-23.201058201058203
11.132275132275131,-23.253968253968257
11.142857142857142,-0.10582010582010583
11.153439153439153,-0.052910052910052914
11.164021164021163,-2.3280423280423284
11.174603174603174,-15.740740740740742
11.185185185185185,-2.2222222222222223
11.195767195767194,-0.026455026455026457
11.206349206349206,-0.07936507936507937
11.216931216931217,-15.76719576719577
11.227513227513226,-11.322751322751323
11.238095238095237,-6.640211640211641
11.248677248677248,-0.07936507936507937
11.25925925925926,-2.2751322751322753
11.269841269841269,-23.201058201058203
11.28042328042328,-0.1851851851851852
11.291005291005291,-20.15873015873016
11.3015873015873,-11.322751322751323
11.312169312169312,-15.820105820105821
11.322751322751323,-20.15873015873016
11.333333333333332,-11.322751322751323
11.343915343915343,-0.10582010582010583
11.354497354497354,-6.534391534391535
11.365079365079364,-15.820105820105821
11.375661375661375,-15.820105820105821
11.386243386243386,-2.2222222222222223
11.396825396825395,0.0
11.407407407407407,-15.820105820105821
11.417989417989418,-15.820105820105821
11.428571428571427,-0.07936507936507937
11.439153439153438,-2.195767195767196
11.44973544973545,-0.07936507936507937
11.46031746031746,-15.820105820105821
11.47089947089947,-15.793650793650794
11.481481481481481,-0.026455026455026457
11.492063492063492,-15.793650793650794
11.502645502645501,-23.253968253968257
11.513227513227513,-15.793650793650794
11.523809523809524,-6.772486772486773
11.534391534391533,-2.3280423280423284
11.544973544973544,-0.07936507936507937
11.555555555555555,-2.3280423280423284
11.566137566137565,-0.1851851851851852
11.576719576719576,-20.185185185185187
11.587301587301587,-22.91005291005291
11.597883597883598,-0.052910052910052914
11.608465608465607,0.0
11.619047619047619,-6.878306878306879
11.62962962962963,-23.227513227513228
11.64021164021164,-15.793650793650794
11.65079365079365,-6.851851851851852
11.661375661375661,-15.396825396825397
11.67195767195767,-15.60846560846561
11.682539682539682,-10.873015873015873
11.693121693121693,-7.010582010582011
11.703703703703702,-11.322751322751323
11.714285714285714,-0.052910052910052914
11.724867724867725,-0.1322751322751323
11.735449735449734,-22.883597883597886
11.746031746031745,-0.052910052910052914
11.756613756613756,-19.94708994708995
11.767195767195766,-7.010582010582011
11.777777777777777,-7.037037037037037
11.788359788359788,-20.105820105820108
11.798941798941799,-2.195767195767196
11.809523809523808,-22.830687830687832
11.82010582010582,-6.957671957671958
11.83068783068783,-20.15873015873016
11.84126984126984,-15.820105820105821
11.851851851851851,-11.455026455026456
11.862433862433862,-20.211640211640212
11.873015873015872,-20.211640211640212
11.883597883597883,-2.3280423280423284
11.894179894179894,-0.052910052910052914
11.904761904761903,-7.010582010582011
11.915343915343914,-0.10582010582010583
11.925925925925926,-23.201058201058203
11.936507936507937,-0.1851851851851852
11.947089947089946,-11.50793650793651
11.957671957671957,-2.195767195767196
11.968253968253968,-7.116402116402117
11.978835978835978,-22.883597883597886
11.989417989417989,-2.195767195767196
12.0,-20.449735449735453
12.01058201058201,-0.1322751322751323
12.02116402116402,-0.10582010582010583
12.031746031746032,-2.2751322751322753
12.042328042328041,-2.3280423280423284
12.052910052910052,-2.2222222222222223
12.063492063492063,-20.29100529100529
12.074074074074073,-20.211640211640212
12.084656084656084,-11.375661375661377
12.095238095238095,-11.322751322751323
12.105820105820104,-2.195767195767196
12.116402116402115,-0.15873015873015875
12.126984126984127,0.0
12.137566137566138,-23.253968253968257
12.148148148148147,-7.063492063492064
12.158730158730158,-2.3280423280423284
12.16931216931217,-7.116402116402117
12.179894179894179,-0.10582010582010583
12.19047619047619,-0.07936507936507937
12.201058201058201,-2.3280423280423284
12.21164021164021,-0.07936507936507937
12.222222222222221,0.0
12.232804232804233,-0.07936507936507937
12.243386243386242,-0.1322751322751323
12.253968253968253,-15.76719576719577
12.264550264550264,-0.10582010582010583
12.275132275132275,-15.76719576719577
12.285714285714285,-7.142857142857143
12.296296296296296,-11.375661375661377
12.306878306878307,-2.195767195767196
12.317460317460316,-0.052910052910052914
12.328042328042327,-15.76719576719577
12.338624338624339,-11.428571428571429
12.349206349206348,-2.2222222222222223
12.359788359788359,-7.16931216931217
12.37037037037037,-0.07936507936507937
12.38095238095238,-23.201058201058203
12.39153439153439,-7.142857142857143
12.402116402116402,-7.116402116402117
12.412698412698411,-20.185185185185187
12.423280423280422,-23.253968253968257
12.433862433862434,-2.301587301587302
12.444444444444443,-7.116402116402117
12.455026455026454,-11.402116402116404
12.465608465608465,-7.08994708994709
12.476190476190476,-0.1851851851851852
12.486772486772486,-0.15873015873015875
12.497354497354497,-20.211640211640212
12.507936507936508,-2.2751322751322753
12.518518518518517,-2.2751322751322753
12.529100529100528,-2.301587301587302
12.53968253968254,-2.3280423280423284
12.550264550264549,-23.227513227513228
12.56084656084656,-23.201058201058203
12.571428571428571,-2.2222222222222223
12.58201058201058,-23.253968253968257
12.592592592592592,-0.1851851851851852
12.603174603174603,-0.07936507936507937
12.613756613756614,-2.301587301587302
12.624338624338623,0.0
12.634920634920634,-0.1851851851851852
12.645502645502646,-2.2751322751322753
12.656084656084655,-2.301587301587302
12.666666666666666,0.0
12.677248677248677,-0.1322751322751323
12.687830687830687,-0.10582010582010583
12.698412698412698,-23.227513227513228
12.708994708994709,-23.227513227513228
12.719576719576718,-0.1322751322751323
12.73015873015873,0.0
12.74074074074074,-0.15873015873015875
12.75132275132275,-0.10582010582010583
12.761904761904761,-23.227513227513228
12.772486772486772,-0.052910052910052914
12.783068783068781,-0.026455026455026457
12.793650793650793,-0.026455026455026457
12.804232804232804,-0.10582010582010583
12.814814814814815,-0.10582010582010583
12.825396825396824,-23.253968253968257
12.835978835978835,-0.1851851851851852
12.846560846560847,-0.1322751322751323
12.857142857142856,-0.052910052910052914
12.867724867724867,-0.1322751322751323
12.878306878306878,-0.026455026455026457
12.888888888888888,-0.10582010582010583
12.899470899470899,-0.1851851851851852
12.91005291005291,-0.15873015873015875
12.92063492063492,-23.253968253968257
12.93121693121693,-0.052910052910052914
12.941798941798941,0.0
12.952380952380953,-0.1322751322751323
12.962962962962962,-0.07936507936507937
12.973544973544973,-0.052910052910052914
12.984126984126984,-0.026455026455026457
12.994708994708994,-0.1851851851851852
13.005291005291005,-0.07936507936507937
13.015873015873016,-0.052910052910052914
13.026455026455025,-0.07936507936507937
13.037037037037036,-0.10582010582010583
13.047619047619047,-18.386243386243386
13.058201058201057,-20.899470899470902
13.068783068783068,-17.195767195767196
13.079365079365079,-22.063492063492067
13.089947089947088,-21.825396825396826
13.1005291005291,-5.687830687830688
13.11111111111111,-20.132275132275133
13.12169312169312,-14.074074074074074
13.132275132275131,-3.3333333333333335
13.142857142857142,-3.650793650793651
13.153439153439153,-6.0317460317460325
13.164021164021163,-13.624338624338625
13.174603174603174,-23.201058201058203
13.185185185185185,-0.29100529100529104
13.195767195767194,-16.375661375661377
13.206349206349206,-0.978835978835979
13.216931216931217,-12.830687830687832
13.227513227513226,-11.534391534391535
13.238095238095237,-6.507936507936509
13.248677248677248,-2.8306878306878307
13.259259259259258,-4.656084656084657
13.269841269841269,-20.634920634920636
