time,voltage
0.0,-11.807256011459064
0.005,-12.697059594432664
0.01,-13.445555134260992
0.015,-14.059370608853877
0.02,-14.545133996121146
0.025,-14.909473273972626
0.03,-15.159016420318144
0.035,-15.30039141306753
0.04,-15.340226230130607
0.045,-15.28514884941721
0.05,-15.141787248837158
0.055,-14.916769406300281
0.06,-14.61672329971641
0.065,-14.248276906995368
0.07,-13.818058206046986
0.075,-13.33269517478109
0.08,-12.798815791107506
0.085,-12.223048032936065
0.09,-11.612019878176586
0.095,-10.972359304738909
0.1,-10.310694290532847
0.105,-9.63365281346824
0.11,-8.947862851454913
0.115,-8.25995238240269
0.12,-7.576549384221392
0.125,-6.904281834820748
0.13,-6.42603947454271
0.135,-5.984209147561242
0.14,-5.604333057702409
0.145,-5.281830449517045
0.15,-5.0330025571349575
0.155,-4.602787430541991
0.16,-4.069057308559471
0.165,-3.8480563073802356
0.17,-3.879918217538761
0.175,-3.9449066977956044
0.18,-4.014637492503309
0.185,-4.060500580672859
0.19,-4.0364468318026
0.195,-3.9939155069472894
0.2,-4.073161333055352
0.205,-4.275523333317577
0.21,-4.50941868388194
0.215,-4.683597156091081
0.22,-4.4383251924351725
0.225,-3.8954532894887044
0.23,-3.8674691803715286
0.235,-4.317964479423742
0.24,-4.628163973167648
0.245,-4.7098185783863755
0.25,-4.684279475522508
0.255,-4.603913497119926
0.26,-4.469750967026859
0.265,-4.281625599299471
0.27,-4.039815018818639
0.275,-3.7444728067074076
0.28,-3.393289981561377
0.285,-2.9843900209541823
0.29,-2.385829612685614
0.295,-1.471502348327152
0.3,-0.5010707573188927
0.305,0.12910747870357636
0.31,0.5430575277359035
0.315,0.6675550005789581
0.32,0.4698339976094297
0.325,0.45530462397034765
0.33,0.585559240459817
0.335,0.7847541043645306
0.34,1.1778572721579676
0.345,1.3387382221037791
0.35,1.1947516005798013
0.355,1.2536708622023973
0.36,1.6230767320461068
0.365,1.7131729937948563
0.37,1.1127761514745462
0.375,0.21631041298313575
0.38,-0.34707597059605
0.385,-0.6058569428055489
0.39,-0.810393110150357
0.395,-0.9603372829232519
0.4,-1.0530841471714147
0.405,-1.0886859011310688
0.41,-1.4174920394225712
0.415,-2.094263167000752
0.42,-2.3264759634360366
0.425,-2.025792408906928
0.43,-1.702384133624915
0.435,-1.443050285899688
0.44,-1.4574481133097872
0.445,-1.7398459150647294
0.45,-2.0617078994732245
0.455,-2.3340414023247305
0.46,-2.526649090514361
0.465,-2.6215181204369364
0.47,-2.5971292758046056
0.475,-2.626848209554763
0.48,-2.923373395033076
0.485,-3.30351314428107
0.49,-3.5798783358550503
0.495,-3.749812291775434
0.5,-3.82045825325317
0.505,-3.81240491488263
0.51,-3.727860405511545
0.515,-3.606728822089031
0.52,-3.4411093039919884
0.525,-2.931707586419299
0.53,-2.0994818930401955
0.535,-1.4608035285823964
0.54,-1.1046911488126865
0.545,-0.7411612373345873
0.55,-0.415320971774259
0.555,-0.3146301212737893
0.56,-0.24069917540950056
0.5650000000000001,-0.05098655916957334
0.5700000000000001,0.19906173709933817
0.5750000000000001,0.494050177349744
0.58,0.5503044585570867
0.585,0.3115094761730921
0.59,0.11804183465007545
0.595,-0.055006421467383146
0.6,0.08155127059908156
0.605,0.6022149773589436
0.61,0.9416299447837472
0.615,0.888824652621258
0.62,0.5686281020945382
0.625,0.25217656890383533
0.63,0.028514440833422455
0.635,-0.17580739631977324
0.64,-0.2527266466449053
0.645,-0.14295044857051453
0.65,0.00020337785116185392
0.655,0.052509698484729556
0.66,0.10381082655910676
0.665,0.26999330877876715
0.67,0.5413186291914374
0.675,0.6416707623592055
0.68,0.4853471458469978
0.685,0.27342788741158425
0.6900000000000001,0.006649438736741356
0.6950000000000001,-0.059648964411673944
0.7000000000000001,0.16116725972838805
0.705,0.39301945379027337
0.71,0.5774480760856691
0.715,0.8288189353574811
0.72,1.1475179384433334
0.725,1.1025652763840703
0.73,0.4227204098496824
0.735,-0.46163388918987935
0.74,-0.97882973487548
0.745,-1.1834077791941504
0.75,-1.3353677635623178
0.755,-1.434643007309763
0.76,-1.4646659324317548
0.765,-1.429747946969274
0.77,-1.2924649949930243
0.775,-1.0404723043803075
0.78,-0.9962923751513593
0.785,-1.2607463279018198
0.79,-1.3933136795769565
0.795,-1.2017697710662367
0.8,-0.811099955135582
0.805,-0.491408378511935
0.81,-0.4360780943149477
0.8150000000000001,-0.44757191109015904
0.8200000000000001,-0.15727345547638236
0.8250000000000001,0.5002850402145553
0.8300000000000001,1.1525733178666704
0.835,1.4895199123667853
0.84,1.6630812556388743
0.845,1.7903324704333767
0.85,1.9160970323472841
0.855,2.167996388538597
0.86,2.4207006087922482
0.865,2.476005673775171
0.87,2.3099335491621096
0.875,1.9700363596268127
0.88,1.6178080235702585
0.885,1.5343006469055582
0.89,1.665174299122726
0.895,1.8613471261146117
0.9,2.0126094522583573
0.905,1.9857439931961258
0.91,1.8657749654618265
0.915,1.7989409206626452
0.92,1.7986219777033499
0.925,1.8300367492197673
0.93,1.8190534726460603
0.935,1.741420626095422
0.94,1.599629606641931
0.945,1.4515424393135443
0.95,1.4729085035014182
0.955,1.5479645907236486
0.96,1.443148380795675
0.965,1.2038813653739247
0.97,0.6873849056813941
0.975,-0.12883402841920816
0.98,-0.7960250500884793
0.985,-1.1178069828126138
0.99,-1.238810232070275
0.995,-1.3000650814986505
1.0,-1.150642007822323
1.005,-0.732539179727995
1.01,-0.35746519783777
1.015,-0.23950874814357623
1.02,-0.13011513502956734
1.025,0.25041564368313474
1.03,0.7994423294834759
1.035,1.32973887003315
1.04,1.8516055367102193
1.045,2.4591578419828664
1.05,3.1424681111538306
1.055,3.4623762187767615
1.06,3.329410505890888
1.065,3.0906411655733472
1.07,2.9856758603130946
1.075,2.830585602393084
1.08,2.3870480027834056
1.085,1.9506659493941922
1.09,1.8476218412434902
1.095,2.1142950687546644
1.1,2.629005389624405
1.105,3.1364812614869093
1.11,3.2650242476948637
1.115,3.087575984541846
1.12,2.9127882433452776
1.125,2.6568289657319464
1.13,2.420518146954356
1.135,2.357698651854941
1.14,2.421005618949694
1.145,2.5103165879165776
1.15,2.3476490413906492
1.155,1.9211431925854374
1.16,1.534576167615426
1.165,1.341246191613399
1.17,1.1728087668537532
1.175,0.9312998061788959
1.18,0.7415779508209479
1.185,0.6519113715177147
1.19,0.45882197120568013
1.195,0.05910029084028696
1.2,-0.3325801187211793
1.205,-0.6886390131428243
1.21,-1.1782144346065002
1.215,-1.7245794898672773
1.22,-2.3063362043992037
1.225,-2.920958466259632
1.23,-3.451090906747335
1.235,-3.584729063823728
1.24,-3.3881023992593278
1.245,-3.421132764034503
1.25,-3.6444914026166932
1.255,-3.9365522768829684
1.26,-4.383924049586688
1.265,-4.754138584299461
1.27,-4.786523616436253
1.275,-4.492077674006549
1.28,-4.105872087506617
1.285,-3.784177875953275
1.29,-3.54208398477419
1.295,-3.415568493980196
1.3,-3.489710054037445
1.305,-3.7169944655741616
1.31,-3.890598680043042
1.315,-4.057504261512076
1.32,-4.266925397624068
1.325,-4.418860555360789
1.33,-4.515618339786806
1.335,-4.56740104226027
1.34,-4.4745702183610225
1.345,-4.231093771131491
1.35,-3.8220682186776997
1.355,-3.3652924318388187
1.36,-3.0540348299777174
1.365,-2.847492906246037
1.37,-2.691238196406876
1.375,-2.6379766722311495
1.38,-2.4685279331778927
1.385,-1.7944793338704748
1.39,-0.9051047420591266
1.395,-0.5444716589220251
1.4,-0.5748022064998084
1.405,-0.3583922003367058
1.41,0.018891891660479755
1.415,0.19139553236944876
1.42,0.18058318436345186
1.425,0.23597857034725045
1.43,0.3692868298846633
1.435,0.4023335173830699
1.44,0.25822927620371156
1.445,0.22914303440177045
1.45,0.5302866534712942
1.455,0.6673103717212041
1.46,0.20454305313771026
1.465,-0.5389901789727868
1.47,-1.1438342187441874
1.475,-1.5148534391187196
1.48,-1.4692709692485513
1.485,-1.089571120423377
1.49,-0.9339574846165002
1.495,-1.120428642359005
1.5,-1.331944750059912
1.505,-1.440228943285954
1.51,-1.4335071691330443
1.515,-1.3555036286578337
1.52,-1.2042095950396103
1.525,-0.9658066071838214
1.53,-0.6041215636144953
1.535,-0.27234563418795943
1.54,-0.22204741135231484
1.545,-0.43492282530899173
1.55,-0.7807381759950514
1.555,-1.1489820835611348
1.56,-1.5067809726898238
1.565,-1.9036265621080948
1.57,-2.366763057676431
1.575,-2.720061381891013
1.58,-2.8812133450546633
1.585,-2.848891959156896
1.59,-2.577425658858509
1.595,-1.9611052711821881
1.6,-1.069464606610495
1.605,-0.5409630603626511
1.61,-0.42009759737807617
1.615,-0.3777594664545699
1.62,-0.24004649524284152
1.625,0.18122566259931994
1.63,0.8683092424388699
1.635,1.4191720689153922
1.64,1.517931957688838
1.645,1.3938539529454874
1.65,1.5005093422198095
1.655,1.7846698907621463
1.66,1.8559154769200208
1.665,1.7202009023921438
1.67,1.7076116908145116
1.675,1.8274933893254923
1.68,1.8638009288543242
1.685,1.8144109519304368
1.69,1.7903673357255812
1.695,1.7877863831961767
1.7,1.6495921703418983
1.705,1.33631483348863
1.71,1.234912893717281
1.715,1.5378144187708074
1.72,1.949401277367559
1.725,2.2813107252211244
1.73,2.6198131627837253
1.735,2.921328466643287
1.74,3.013664896473742
1.745,2.823686769871339
1.75,2.5001810085257703
1.755,2.435966730247389
1.76,2.643777692017812
1.765,2.8892733545733247
1.77,3.168013577800334
1.775,3.487041623309459
1.78,3.864236073294744
1.785,4.1334803813807595
1.79,4.176571744970983
1.795,4.127094855917952
1.8,4.138045947932321
1.805,4.2765777103752605
1.81,4.529880826521069
1.815,4.967060200865646
1.82,5.5418248682764935
1.825,6.156584752806307
1.83,6.8216510942225685
1.835,7.362140938688458
1.84,7.54062523545575
1.845,7.579189535255571
1.85,7.621517577250759
1.855,7.492299781579204
1.86,7.33951098136725
1.865,7.187436329678408
1.87,6.96983625257462
1.875,6.731289695332827
1.88,6.381860847717283
1.885,5.814874348136975
1.89,4.969096128148388
1.895,3.969046833319656
1.9,2.999584768363151
1.905,2.109633741054073
1.91,1.4385893432704495
1.915,1.0157457625192088
1.92,0.5844914936510213
1.925,-0.04748892049902194
1.93,-0.7104770493223265
1.935,-1.1836097204118843
1.94,-1.477453065689502
1.945,-1.6584673597543327
1.95,-1.8120565011317622
1.955,-2.1298452662203924
1.96,-2.5466686374966367
1.965,-2.9553700451573857
1.97,-3.3910759361396616
1.975,-3.7177915377200788
1.98,-3.873343411405197
1.985,-3.993260649120644
1.99,-4.194596999655095
1.995,-4.16293218879979
2.0,-3.7036246079146964
2.005,-3.2486451719923637
2.01,-3.105340315119261
2.015,-2.943662850996885
2.02,-2.460201422464532
2.025,-1.9080014780944845
2.03,-1.6137263994965412
2.035,-1.4300524847619187
2.04,-1.1870584602541856
2.045,-0.8999372825963786
2.05,-0.2984724181953474
2.055,0.59701102803223
2.06,1.1761809151326221
2.065,1.4746734204196474
2.07,1.6703245419830912
2.075,1.6879062028614964
2.08,1.5740229731700235
2.085,1.3846902829128278
2.09,1.4569770964236493
2.095,2.073599594548737
2.1,2.892815908468525
2.105,3.3616332516575986
2.11,3.361534827451846
2.115,2.97166979349731
2.12,2.334512636816432
2.125,1.7366155252800184
2.13,1.2351220218405299
2.135,0.8090538013076369
2.14,0.40489947841126805
2.145,0.20223944673022576
2.15,0.26955457181751025
2.155,0.28645579365940377
2.16,0.23612081236502255
2.165,0.07759146696707415
2.17,-0.2900140029004491
2.1750000000000003,-0.5299351184036988
2.18,-0.3997095635332638
2.185,-0.30035644448306076
2.19,-0.5510798278279289
2.195,-0.8491676205956342
2.2,-0.9746360024204792
2.205,-1.0551891256289978
2.21,-1.007703144796845
2.215,-0.8810257482782627
2.22,-1.0432975399805693
2.225,-1.3539513538706958
2.23,-1.3601785520283922
2.235,-1.1150742978759867
2.24,-0.971852039202336
2.245,-0.9145935297707626
2.25,-1.0368710013515439
2.255,-1.4552897650170362
2.26,-1.7015297765025055
2.265,-1.5005584075894223
2.27,-1.3392766918704102
2.275,-1.633382463220954
2.28,-2.17794430880526
2.285,-2.5507216335300646
2.29,-2.7296060179587065
2.295,-2.917067745565706
2.3000000000000003,-3.129606738334133
2.305,-3.4924673029371016
2.31,-4.010061324573093
2.315,-4.044489646298329
2.32,-3.5973038762809617
2.325,-3.182484620561526
2.33,-2.820542233993241
2.335,-2.3086642693932187
2.34,-1.6585244266984165
2.345,-1.380495173091754
2.35,-1.6037754276298897
2.355,-2.0494636430407662
2.36,-2.580199811667556
2.365,-2.896430917514601
2.37,-2.7203907861226866
2.375,-2.338890061316319
2.38,-2.086241285448189
2.385,-1.8151421899057723
2.39,-1.4819991547962506
2.395,-1.1824917714199565
2.4,-0.9755849763883326
2.405,-0.9003749258404927
2.41,-0.8681778284141601
2.415,-0.797243502002349
2.42,-0.44537279537769425
2.4250000000000003,0.12678655344031756
2.43,0.4313199504075038
2.435,0.392010564740501
2.44,0.3633372352420673
2.445,0.5827476808513289
2.45,0.8237006312747074
2.455,0.7771468751061279
2.46,0.49950073255712135
2.465,0.15335490144947644
2.47,-0.13955378422343534
2.475,-0.08698499315519934
2.48,0.2533528961672221
2.485,0.39853896909964603
2.49,0.33225547643694986
2.495,0.38905140465815513
2.5,0.5930707773326271
2.505,0.8674299709897099
2.51,1.2006772352064363
2.515,1.6505024230891403
2.52,2.0945853598457593
2.525,2.3649239299088722
2.53,2.5464645408112485
2.535,2.5997816835466456
2.54,2.567948654649146
2.545,2.7682910881998866
2.5500000000000003,3.2843841037962376
2.555,3.76991682579056
2.56,3.969233522386927
2.565,4.003555143873952
2.57,3.8942981255077944
2.575,3.7232066610910466
2.58,3.879102951668381
2.585,4.194230981201185
2.59,3.9808549040207595
2.595,3.301022709417472
2.6,2.811882299261288
2.605,2.6002380827821083
2.61,2.5531473780157348
2.615,2.6245070348026793
2.62,2.836540206266784
2.625,3.053573970410085
2.63,3.1792620356646446
2.635,3.35265833750529
2.64,3.5779798465473354
2.645,3.690161373808597
2.65,3.513760727250833
2.655,2.993044234571379
2.66,2.3069901195312132
2.665,1.7833460862714716
2.67,1.5077359482126198
2.6750000000000003,1.314000115203242
2.68,1.0270185297647083
2.685,0.4950517247342767
2.69,-0.16683382197348845
2.695,-0.4223571211693842
2.7,-0.3286241784901509
2.705,-0.23665611102849823
2.71,-0.18589932069603124
2.715,-0.37938617653950646
2.72,-0.8056283121877423
2.725,-1.253131162323031
2.73,-1.653634319773705
2.735,-1.9764748086273625
2.74,-2.1741187147983054
2.745,-2.11623818611798
2.75,-1.6914867761309322
2.755,-1.07502740756465
2.76,-0.547066449878875
2.765,-0.15308169219147194
2.77,-0.3207106004782123
2.775,-1.0096872562325379
2.78,-1.5054494661700737
2.785,-1.7891695269134822
2.79,-2.0496471080413725
2.795,-2.1926064943132215
2.8000000000000003,-2.133097471729773
2.805,-2.0725377006552295
2.81,-2.226517798642302
2.815,-2.4196853409167396
2.82,-2.485261056928306
2.825,-2.4428951631901126
2.83,-2.388537300794265
2.835,-2.5711430664476524
2.84,-2.8389559103115056
2.845,-2.5728970985025414
2.85,-1.9283205080651287
2.855,-1.5299917603304367
2.86,-1.226568909066902
2.865,-0.5642635671974073
2.87,0.36566182624802823
2.875,0.8572925883164302
2.88,0.8526446709600607
2.885,0.6601702422325385
2.89,0.4142967449395317
2.895,0.33337920070461247
2.9,0.35073645269788933
2.905,0.39417814404306695
2.91,0.6009561239797216
2.915,0.9725279260640024
2.92,1.4031334211924589
2.9250000000000003,1.6459515335577033
2.93,1.2966042525506352
2.935,0.562136708161739
2.94,0.15060776653571084
2.945,0.09672609368937735
2.95,-0.16136314774102833
2.955,-0.6967381953266475
2.96,-1.29054369108162
2.965,-1.9240712370130446
2.97,-2.0705210669131233
2.975,-1.6735878434678382
2.98,-1.2117765164190963
2.985,-0.7872221088248341
2.99,-0.539916531836722
2.995,-0.4754777649206471
3.0,-0.44463978898074985
3.005,-0.5434306639333005
3.01,-0.9220694983770986
3.015,-1.5085579476396056
3.02,-2.1300139325981675
3.025,-2.449128532766531
3.03,-2.3814385400253424
3.035,-2.1481688124137404
3.04,-1.94410951052707
3.045,-1.9335565664459429
3.0500000000000003,-1.9793209119307518
3.055,-2.0051759660961657
3.06,-2.1725581932025175
3.065,-2.4076440428507366
3.0700000000000003,-2.4870835598077
3.075,-2.416439110534304
3.08,-2.2664265614091956
3.085,-2.0091050389249805
3.09,-1.652164387294308
3.095,-1.1634145756142087
3.1,-0.6566356633229563
3.105,-0.33729236438741195
3.11,-0.08048902458296384
3.115,0.22346189109463446
3.12,0.2781407663494906
3.125,0.057149386163769654
3.13,0.013710999916030954
3.135,0.16124308374045937
3.14,0.4464329627270902
3.145,0.9041848521725613
3.15,1.3995783695790323
3.155,1.7659309365940334
3.16,1.8778290730903773
3.165,1.820807900036378
3.17,1.6572346032565195
3.1750000000000003,1.3725003171733117
3.18,1.1485848250961
3.185,1.2200740594228094
3.19,1.490788427584571
3.1950000000000003,1.7572637220516378
3.2,2.1502085613670294
3.205,2.7841235271145894
3.21,3.4827818329760403
3.215,3.993722477895297
3.22,4.408443871098482
3.225,4.642290023910566
3.23,4.585238369348179
3.235,4.221367281724161
3.24,3.6299845478614894
3.245,3.5064170064806586
3.25,3.887565506844826
3.255,4.199077957603005
3.26,4.228458265946268
3.265,3.9525227785484143
3.27,3.53883685241082
3.275,3.2332579390253624
3.28,3.0847479134934783
3.285,2.883488504258825
3.29,2.3072606368903674
3.295,1.4937988854074093
3.3000000000000003,1.026454786208369
3.305,0.9796961723233221
3.31,1.005726869601895
3.315,0.9197387062944664
3.3200000000000003,0.645249532711166
3.325,0.3085357978003782
3.33,0.20449722637111636
3.335,0.29380339855410015
3.34,0.26957652033174717
3.345,0.12351230310969405
3.35,0.06369624770594676
3.355,-0.02395107511716034
3.36,-0.16143170643612426
3.365,-0.12247816431205294
3.37,0.057251598150617956
3.375,0.22638315972419926
3.38,0.39958502103068105
3.385,0.5709556624225327
3.39,0.6734366011845292
3.395,0.6473577315379674
3.4,0.573842814282627
3.405,0.37247920084004094
3.41,-0.03707503780418124
3.415,-0.5541266328304655
3.42,-1.0913167236293935
3.4250000000000003,-1.4700597701533393
3.43,-1.7247653285138382
3.435,-1.9974817023550595
3.44,-2.290673643316005
3.4450000000000003,-2.329957100837163
3.45,-2.04377333715125
3.455,-1.6838894658506351
3.46,-1.5146487841023741
3.465,-1.5453780241602622
3.47,-1.5656684388438804
3.475,-1.5274028787012972
3.48,-1.5688077953982342
3.485,-1.7555060396027042
3.49,-1.9280741354234385
3.495,-1.9899355358258597
3.5,-2.369899847327722
3.505,-3.1127027927372444
3.51,-3.864561904956265
3.515,-4.598389812589813
3.52,-4.873345724321549
3.525,-4.59664054508781
3.53,-4.442867803484979
3.535,-4.602527073891065
3.54,-4.726428539009359
3.545,-4.623635546397088
3.5500000000000003,-4.37043045381449
3.555,-4.061228000354066
3.56,-3.6940031203685444
3.565,-3.41750571434507
3.5700000000000003,-3.21154582783817
3.575,-2.6213328293734888
3.58,-1.7568117293935959
3.585,-1.3185843673728497
3.59,-1.2076840815403815
3.595,-0.7413877723605786
3.6,0.08955306461093376
3.605,0.5818495152743709
3.61,0.6233615061678495
3.615,0.8502550577117252
3.62,1.3504192524912304
3.625,1.6037423803714974
3.63,1.5119500097327419
3.635,1.4347151871798758
3.64,1.4815404677133723
3.645,1.5200719814354304
3.65,1.5676057991868595
3.655,1.6760949457965257
3.66,1.7604787423728263
3.665,1.6965402422860172
3.67,1.4651218445299417
3.675,1.2258011249421512
3.68,1.0192518074250678
3.685,0.8592324472098276
3.69,1.1424617033281863
3.695,1.8423641710124914
3.7,2.22273642127105
3.705,2.199840186552132
3.71,1.9300264119960227
3.715,1.4558261156370764
3.72,0.967648433055858
3.725,0.5887524107532747
3.73,0.21531682524704726
3.735,-0.2752110971167173
3.74,-0.7787474624290025
3.745,-1.07885583689749
3.75,-1.245242023494495
3.755,-1.4368679338701287
3.76,-1.5530213242634552
3.765,-1.5220991263322046
3.77,-1.39859318887065
3.775,-1.574241047810709
3.78,-2.097293775302489
3.785,-2.581181389742524
3.79,-2.8697109878981313
3.795,-3.0306177614859697
3.8,-3.1339618717344435
3.805,-2.920472528373511
3.81,-2.355115641107434
3.815,-1.7606798566793087
3.82,-1.3418171763568065
3.825,-1.2234614753368211
3.83,-1.4870403690328053
3.835,-1.9581343193872516
3.84,-2.1888880673641427
3.845,-2.134539163252512
3.85,-2.1085222690120684
3.855,-2.1329330912098783
3.86,-1.8922597293937837
3.865,-1.3681718999685517
3.87,-1.0141171009731542
3.875,-0.9440010260654477
3.88,-0.8958024656601518
3.885,-0.6706727128773217
3.89,-0.33802121786838435
3.895,-0.09462108101252434
3.9,-0.04624998433597084
3.905,-0.11078266688033014
3.91,-0.11077137167594064
3.915,-0.05199549152954455
3.92,-0.040915877930616046
3.925,0.07235148979791375
3.93,0.3829770698859032
3.935,0.7821511374839167
3.94,1.2362949178692402
3.945,1.420713648433439
3.95,1.3117407029330943
3.955,1.5389921921782386
3.96,2.0817112264240043
3.965,2.6560753693522132
3.97,3.25513117483646
3.975,3.552954786957647
3.98,3.5423862725146997
3.985,3.4895329724648945
3.99,3.454916974447062
3.995,3.398659718296546
4.0,3.2705316097639425
4.005,3.0870500416813194
4.01,2.9554504496065883
4.015,2.81963365740366
4.0200000000000005,2.488203678792292
4.025,2.026498136005029
4.03,1.659577305643586
4.035,1.4175577629071512
4.04,1.4466819913928333
4.045,1.7133930342444417
4.05,1.8876622154695077
4.055,2.0017483611978486
4.0600000000000005,1.986568100181757
4.065,1.7296427961177006
4.07,1.5969392659299644
4.075,1.6333191764147772
4.08,1.4824180360969221
4.085,1.1692336705349669
4.09,0.9175601786663405
4.095,0.808979328178323
4.1,0.8146531549829635
4.105,0.8555000579830543
4.11,0.9915006260683364
4.115,1.268046731078869
4.12,1.5204399939280628
4.125,1.4782945622488088
4.13,1.2640522261884006
4.135,1.479283325422364
4.14,2.0574393407524547
4.1450000000000005,2.2549839551372353
4.15,2.0593566180265634
4.155,2.130446308234639
4.16,2.540564078425761
4.165,2.7079817158768846
4.17,2.4527751062848364
4.175,2.300921212598916
4.18,2.5388816516159545
4.1850000000000005,2.830681246460479
4.19,2.942151700269021
4.195,3.1480361254305604
4.2,3.6662160951788585
4.205,4.188936294871675
4.21,4.15948678742575
4.215,3.742564829207029
4.22,3.4993414774994176
4.225,3.321066112352469
4.23,3.2132763576017553
4.235,3.2245391524909324
4.24,2.936727925267755
4.245,2.3629921235511016
4.25,1.9612594052583723
4.255,1.7196746649734447
4.26,1.5692105176737385
4.265,1.5127678052005573
4.2700000000000005,1.313565661551313
4.275,0.9305828652211765
4.28,0.6390793431380312
4.285,0.5512047438156805
4.29,0.4727279379779282
4.295,0.15664543088794697
4.3,-0.33831203899811957
4.305,-0.7080988372679626
4.3100000000000005,-0.8607779703533069
4.315,-0.7868760187108143
4.32,-0.5683902436542317
4.325,-0.8259965094590686
4.33,-1.5973334528497605
4.335,-2.1102551014193396
4.34,-2.216483614000671
4.345,-2.1707193804228986
4.3500000000000005,-2.070845297184851
4.355,-1.7916817714620341
4.36,-1.3196212618846215
4.365,-1.0254083053874856
4.37,-1.155438889525998
4.375,-1.4524668076655969
4.38,-1.5116431068642298
4.385,-1.2829846567291572
4.39,-1.0324518490046373
4.3950000000000005,-0.8793717010806568
4.4,-0.5306869216458457
4.405,0.031717371516745654
4.41,0.2824619138871771
4.415,0.20743509131920765
4.42,0.3102054108080192
4.425,0.675102013012554
4.43,0.9625837769521668
4.4350000000000005,1.0229829269289834
4.44,0.9575599968947897
4.445,0.9523928935776762
4.45,1.0115946603099961
4.455,0.9263358436946625
4.46,0.6094747038615572
4.465,0.28867555456435745
4.47,0.15879726295689484
4.4750000000000005,0.06533203373618865
4.48,-0.15214685305331305
4.485,-0.4767720209717692
4.49,-0.8981037608776474
4.495,-1.1390505006911322
4.5,-1.1629040636701942
4.505,-1.5847726436792058
4.51,-2.4251858361450584
4.515,-3.362574830187029
4.5200000000000005,-4.398516872212095
4.525,-5.009013823197932
4.53,-5.050552308483538
4.535,-5.019162972566983
4.54,-5.197239187719015
4.545,-5.616113192003838
4.55,-6.146016733460655
4.555,-6.625686425698254
4.5600000000000005,-6.959787141470258
4.565,-7.121107792808838
4.57,-7.240437910206361
4.575,-7.380644114113783
4.58,-7.2879134566982975
4.585,-6.906915040774932
4.59,-6.496966231122157
4.595,-6.110179436616194
4.6000000000000005,-5.908339987164509
4.605,-5.83756513066627
4.61,-5.790138534538836
4.615,-5.840080131306574
4.62,-5.700589705202298
4.625,-5.195946653269196
4.63,-4.526754191109279
4.635,-3.807131171223846
4.64,-3.096649210661781
4.6450000000000005,-2.5734848997876605
4.65,-2.0918221603194453
4.655,-1.4168838540026794
4.66,-0.7458174265118093
4.665,-0.22460917188692345
4.67,0.24846440817618556
4.675,0.6997856252788134
4.68,1.0738686512998312
4.6850000000000005,1.2107610522974017
4.69,1.1396937152371391
4.695,1.279630807917303
4.7,1.6699429756638537
4.705,1.9296602392789726
4.71,1.9386385529313095
4.715,2.1586637355009843
4.72,2.8291406256873914
4.7250000000000005,3.410031908644462
4.73,3.473985156161287
4.735,3.3498525982138383
4.74,3.37060904369419
4.745,3.4345596555143243
4.75,3.458003614264337
4.755,3.3934343109212923
4.76,3.3292958109190924
4.765,3.385844840889135
4.7700000000000005,3.5088527223943253
4.775,3.6969182126482587
4.78,3.60657931418683
4.785,3.167527690633665
4.79,2.607404473069128
4.795,1.983073114198997
4.8,1.7570156463868198
4.805,2.0390496692913427
4.8100000000000005,2.3104791851884814
4.815,2.389047724016965
4.82,2.4759671826956184
4.825,2.5739492563181994
4.83,2.4535501154341084
4.835,2.0238930972490414
4.84,1.428240852569191
4.845,0.7894089547878141
4.8500000000000005,0.14343270275781525
4.855,-0.18177102322604774
4.86,-0.14255599222916873
4.865,0.11416643770778966
4.87,0.505331494754064
4.875,0.48908098877194695
4.88,0.11227775952232236
4.885,-0.03265300367205125
4.89,0.11313445260305385
4.8950000000000005,0.4007984107059508
4.9,0.7686469734749702
4.905,0.8931555908086961
4.91,0.5519421878755394
4.915,0.02144968443529975
4.92,-0.32563056697323267
4.925,-0.5394091305734128
4.93,-0.8024806765077993
4.9350000000000005,-1.0765564890351462
4.94,-1.1472463534874429
4.945,-0.9469409323369631
4.95,-0.575812756858961
4.955,-0.11972321407738215
4.96,0.35946067758276123
4.965,0.889503768508875
4.97,1.3170719064086451
4.9750000000000005,1.5509629782858783
4.98,1.652695420845246
4.985,1.7878731590515937
4.99,1.9763131610969034
4.995,2.057838719160112
5.0,1.8425808296393982
5.005,1.3112104783937388
5.01,0.7029944154905947
5.015,0.3133461046790508
5.0200000000000005,0.10253884432331795
5.025,-0.09099930381102606
5.03,-0.24752085384228065
5.035,-0.2808298774738751
5.04,-0.12124140245781925
5.045,0.42924744822446337
5.05,1.2848723550812737
5.055,1.7075655770567415
5.0600000000000005,1.6166381545954354
5.065,1.5153144088070318
5.07,1.572455283396438
5.075,1.3763158888795939
5.08,0.7630819739860895
5.085,0.3625024687550631
5.09,0.5254329994710939
5.095,0.7625664371531398
5.1000000000000005,0.7160845693840578
5.105,0.563021457646768
5.11,0.3996523454109244
5.115,0.21581620585498876
5.12,-0.08283935719375823
5.125,-0.5065719224250418
5.13,-0.4935858135418809
5.135,-0.07779205923187565
5.14,-0.06916050613055605
5.1450000000000005,-0.4593152907469824
5.15,-0.8693072433993175
5.155,-1.3047304885019728
5.16,-1.6421731247590312
5.165,-1.7810992080040677
5.17,-1.6232604940053426
5.175,-1.2244280939382226
5.18,-0.8784712093056349
5.1850000000000005,-0.6733058896470654
5.19,-0.45855200601418367
5.195,-0.14635271716784853
5.2,0.31663416936007427
5.205,0.8506555198289425
5.21,1.3073830528901986
5.215,1.6590826848178242
5.22,1.9056981314977346
5.2250000000000005,1.9817059474538283
5.23,1.8616954263317906
5.235,1.6610144644730425
5.24,1.4660016581931457
5.245,1.0655805348908847
5.25,0.4028852828073689
5.255,0.07146906089904406
5.26,0.22449192324815906
5.265,0.4644813214031349
5.2700000000000005,0.6049185507619541
5.275,0.7184740134013742
5.28,0.8694566840792253
5.285,1.1082697228059077
5.29,1.4583808932489326
5.295,1.6916379680020832
5.3,1.3103979286515757
5.305,0.4956289427516076
5.3100000000000005,0.020161958318842252
5.315,-0.24796624704085887
5.32,-0.8962356749347682
5.325,-1.8491027864994403
5.33,-2.5423215182353767
5.335,-2.910124044145866
5.34,-3.376651631073533
5.345,-4.141606310639799
5.3500000000000005,-4.839306683127968
5.355,-5.184936994681219
5.36,-5.247479289705315
5.365,-5.1616114439397
5.37,-5.049371214804093
5.375,-5.031033639650804
5.38,-5.1243986429511725
5.385,-5.398980976710004
5.39,-5.802007019656484
5.3950000000000005,-5.903705287218212
5.4,-5.628426942762629
5.405,-5.152824283820326
5.41,-4.5438105299504565
5.415,-3.993614294324335
5.42,-3.46407156339466
5.425,-2.8052731825983392
5.43,-2.152318742937717
5.4350000000000005,-1.692144639880964
5.44,-1.2661630081642286
5.445,-0.7180258544624771
5.45,-0.06430970749515774
5.455,0.5572324275941904
5.46,0.9534345714989896
5.465,1.1669453563094416
5.47,1.3574910763033423
5.4750000000000005,1.6045298007707607
5.48,1.9993562863695482
5.485,2.3885957968694576
5.49,2.6194921531530957
5.495,2.8030867493802445
5.5,3.1974802413942953
5.505,3.8315715440416658
5.51,4.387117262735488
5.515,4.730288463131938
5.5200000000000005,4.853306103812733
5.525,4.858238221304345
5.53,4.976957773765392
5.535,5.206213532197987
5.54,5.179727785306718
5.545,4.7484415203078525
5.55,4.226093660137496
5.555,3.9730101903787705
5.5600000000000005,3.9291524820555868
5.565,3.7157168611521056
5.57,3.2546873831618126
5.575,2.8886000699528402
5.58,2.776112685016061
5.585,2.869259691621678
5.59,3.0838980173987793
5.595,3.190220381862086
5.6000000000000005,3.2037461955466573
5.605,3.0918863588965833
5.61,2.8808414076281768
5.615,2.6192340608470084
5.62,2.2906861712821933
5.625,2.1948400406671893
5.63,2.409138949009299
5.635,2.5528314713826012
5.64,2.4800303430840547
5.6450000000000005,2.344895629275864
5.65,2.2404027759971163
5.655,2.257122650262371
5.66,2.3923591163817717
5.665,2.529105208769689
5.67,2.7350084984475087
5.675,2.988123563489921
5.68,2.76026121091773
5.6850000000000005,2.0397156520966053
5.69,1.3556589961395047
5.695,0.8396408810791969
5.7,0.4430066055065528
5.705,0.11164046932931306
5.71,-0.17536808423662933
5.715,-0.4156892198896054
5.72,-0.39263656607241537
5.7250000000000005,-0.07212784053375623
5.73,0.25525805539227264
5.735,0.32884309817583546
5.74,0.15318278277468095
5.745,-0.028657882354790748
5.75,-0.15578750884550954
5.755,-0.33662444054574236
5.76,-0.5717874272095992
5.765,-0.9527080795615872
5.7700000000000005,-1.4448925823896384
5.775,-1.57007066828045
5.78,-1.3527061570118188
5.785,-1.317770815651966
5.79,-1.545137949730889
5.795,-1.9802389779512195
5.8,-2.4442024755896568
5.805,-2.779842229168085
5.8100000000000005,-3.007592295324694
5.815,-3.190045778720158
5.82,-3.4235395364387684
5.825,-3.6359534057065686
5.83,-3.640909171345991
5.835,-3.515133496865806
5.84,-3.5512824450437654
5.845,-3.7492462290227966
5.8500000000000005,-3.8774880535936376
5.855,-3.9299056266438415
5.86,-3.852499796972626
5.865,-3.6035744470871327
5.87,-3.1507554250653516
5.875,-2.513398555480177
5.88,-2.1175641211193446
5.885,-2.0644198322959384
5.89,-1.7538477403957422
5.8950000000000005,-0.992123400500202
5.9,-0.25723876287507563
5.905,0.29436174120803016
5.91,0.8847112403804327
5.915,1.453738245931718
5.92,1.6944831120650208
5.925,1.5011445785223607
5.93,1.1490336253044995
5.9350000000000005,1.0847670924909247
5.94,1.2641388858004365
5.945,1.5723246569103306
5.95,2.014216608477015
5.955,2.428848349283754
5.96,2.802765225175062
5.965,2.960137225867535
5.97,2.9619194957579853
5.9750000000000005,2.825304947370503
5.98,2.4354897489265626
5.985,1.8907768569364907
5.99,1.2585408676467098
5.995,0.6365938970455007
6.0,0.14396301452553226
6.005,-0.21827135285264435
6.01,-0.4858555932831694
6.015000000000001,-0.5789943616248446
6.0200000000000005,-0.4263927291017161
6.025,-0.20720359576428712
6.03,-0.3941680440430828
6.035,-0.8941843328705745
6.04,-1.1937055894382615
6.045,-1.3914904693442343
6.05,-1.5101578901494204
6.055,-1.4670461395847654
6.0600000000000005,-1.5835898736744554
6.065,-1.8616225335671277
6.07,-1.9236300127078543
6.075,-1.7801293429972278
6.08,-1.7687217065632141
6.085,-1.9346812713930377
6.09,-2.102470341810813
6.095,-2.1937761014979196
6.1000000000000005,-2.208774951842177
6.105,-2.147570300118455
6.11,-1.9164953136335814
6.115,-1.3974292869066454
6.12,-0.7687399523709746
6.125,-0.42757107266329986
6.13,-0.30612511155125466
6.135,-0.051878563230856545
6.140000000000001,0.3608180145093466
6.1450000000000005,0.7958359963474697
6.15,1.130103125372651
6.155,1.6020763222974368
6.16,2.34385620655356
6.165,2.694371447417527
6.17,2.4220941007889443
6.175,2.051972051272504
6.18,1.965056113221269
6.1850000000000005,2.0013682569554043
6.19,1.8744577527689483
6.195,1.6086559848567987
6.2,1.2850376200122517
6.205,0.8788400686257504
6.21,0.40505556441318125
6.215,-0.11841824546169005
6.22,-0.43255048861672285
6.2250000000000005,-0.4390102774761975
6.23,-0.10302465160585283
6.235,0.4784069078638511
6.24,0.7017906402179217
6.245,0.6363778613319188
6.25,0.6288919855347018
6.255,0.7122926154229632
6.26,1.0352263002172652
6.265000000000001,1.593331106515342
6.2700000000000005,1.9921272815441862
6.275,2.0258669539616165
6.28,2.086967977673057
6.285,2.5574382826440165
6.29,3.097238176336784
6.295,3.1183624632079003
6.3,2.758705012302046
6.305,2.504496692142098
6.3100000000000005,2.31487354025573
6.315,2.256047082323468
6.32,2.380586219638469
6.325,2.350841476432285
6.33,2.076993314707444
6.335,1.6606895984731813
6.34,1.2649534406741527
6.345,0.9600001672906844
6.3500000000000005,0.7078828956900644
6.355,0.5098111937331776
6.36,0.3670007540583011
6.365,0.12092676322051515
6.37,-0.3998701527301861
6.375,-0.9774994692965584
6.38,-1.2254993051100231
6.385,-1.1376348825886282
6.390000000000001,-0.8558392391671962
6.3950000000000005,-0.5588247829856309
6.4,-0.7505878997154467
6.405,-1.3367481213151726
6.41,-1.8433265067573759
6.415,-2.3563477563418718
6.42,-2.9066008293687386
6.425,-3.350113339387682
6.43,-3.6835871680368983
6.4350000000000005,-3.9534805723876825
6.44,-4.1157127808571
6.445,-4.163338767223875
6.45,-3.9366845087294444
6.455,-3.428242637861768
6.46,-3.0111785659548884
6.465,-2.8649853041772593
6.47,-2.7014548793509947
6.4750000000000005,-2.264224373585948
6.48,-1.7870217393656294
6.485,-1.8414555374954398
6.49,-2.3703679072735024
6.495,-2.5742660022544657
6.5,-2.366556523495725
6.505,-1.8507227880500725
6.51,-1.0960807709881624
6.515000000000001,-0.7233911056178
6.5200000000000005,-0.7702949792232441
6.525,-0.7110079260245284
6.53,-0.364954815270661
6.535,-0.047432737981976544
6.54,-0.00894533619178435
6.545,-0.04427944619363375
6.55,0.12298696267689266
6.555,0.4097565217626762
6.5600000000000005,0.5951685319802236
6.565,0.7353487208345756
6.57,0.9811665936177022
6.575,1.208804985540675
6.58,1.156507790441966
6.585,0.9086404640507459
6.59,1.0105016286519155
6.595,1.44379118724899
6.6000000000000005,1.8919548045099772
6.605,2.3245173621295607
6.61,2.617894374691805
6.615,2.783514819142284
6.62,2.9455545595453243
6.625,3.1660707886854813
6.63,3.3530751036388518
6.635,3.413042491576909
6.640000000000001,3.2085759086372843
6.6450000000000005,2.626011066946645
6.65,1.9352088117485138
6.655,1.6120019717277336
6.66,1.599513654347965
6.665,1.478403063345584
6.67,1.2000226731996801
6.675,1.0919098146508777
6.68,1.1767208257623867
6.6850000000000005,1.3004656365713436
6.69,1.449324476121391
6.695,1.3507702040917806
6.7,1.0410147578497626
6.705,0.6267652083842683
6.71,-0.018254999883549047
6.715,-0.8002049385577948
6.72,-1.4671648000686006
6.7250000000000005,-1.8963416703807665
6.73,-2.260317994486035
6.735,-2.8022884420698495
6.74,-3.462005154155826
6.745,-4.0602565432037085
6.75,-4.552325088604085
6.755,-4.97058153928856
6.76,-5.529393818106792
6.765000000000001,-6.265587865579558
6.7700000000000005,-6.751608494639559
6.775,-6.931538448814197
6.78,-6.882786337340167
6.785,-6.662705349291116
6.79,-6.533527116377968
6.795,-6.450509346839264
6.8,-6.263714600213901
6.805,-5.960889676000046
6.8100000000000005,-5.510401012192923
6.815,-4.917579418157797
6.82,-4.362885015434068
6.825,-3.992644219797438
6.83,-3.661679671675818
6.835,-3.101253868486262
6.84,-2.3645831695492934
6.845,-1.766680131419099
6.8500000000000005,-1.3543113890377039
6.855,-1.0434812924976726
6.86,-0.8149400009209494
6.865,-0.40735936737367273
6.87,0.14671796715379737
6.875,0.5143157960642404
6.88,0.7193080191989542
6.885,1.1705402321489589
6.890000000000001,1.8475744470669713
6.8950000000000005,2.3892609452640827
6.9,2.8300247983352866
6.905,3.285825290985449
6.91,3.703707600589582
6.915,4.055379458254416
6.92,4.305716040548789
6.925,4.453292151705282
6.93,4.523124741221657
6.9350000000000005,4.489892793327088
6.94,4.342513674910244
6.945,4.081339244545424
6.95,3.9816647905292633
6.955,4.0842252163492665
6.96,4.075780653974623
6.965,3.909895270467689
6.97,4.092669905694547
6.9750000000000005,4.660523497944182
6.98,5.0450865258433275
6.985,5.0205735318855655
6.99,4.718165946423463
6.995,4.4177038030781155
7.0,4.275548691790061
7.005,4.240840847529197
7.01,4.232311810612062
7.015000000000001,4.192889714344631
7.0200000000000005,4.078026675781057
7.025,3.836930115078692
7.03,3.4946532459200403
7.035,2.952827233898856
7.04,2.2022448693576084
7.045,1.5965915115670906
7.05,1.1700674312423
7.055,0.7856522953481739
7.0600000000000005,0.42430636178105685
7.065,0.3342717506881201
7.07,0.4390165762163072
7.075,0.29789792735980775
7.08,-0.05787626664991555
7.085,-0.3891094991715782
7.09,-0.6490745712904931
7.095,-0.8747300645763668
7.1000000000000005,-1.089104208573285
7.105,-1.2620910028727308
7.11,-1.3410481942817867
7.115,-1.2850786667554295
7.12,-1.1635670084219496
7.125,-1.1177036689584292
7.13,-1.1234413126494562
7.135,-1.0915430498668675
7.140000000000001,-1.2752020685474257
7.1450000000000005,-1.7546228932618477
7.15,-2.111539646745766
7.155,-2.200175132928612
7.16,-2.1263477185439
7.165,-1.9629602180660428
7.17,-1.6460022311282736
7.175,-1.177421540297157
7.18,-0.7536721932525028
7.1850000000000005,-0.4520916784690624
7.19,-0.16251987232297224
7.195,0.20076107720159306
7.2,0.6252067907773264
7.205,1.0957465115943725
7.21,1.716173443087335
7.215,2.6739826919828102
7.22,3.787994417773
7.225,4.27423219566358
7.23,4.167968931438959
7.235,3.954155313855106
7.24,3.6415613712558965
7.245,3.5731815612120212
7.25,3.8195299296682763
7.255,3.979654540153008
7.26,3.9041578339124476
7.265000000000001,3.6309023238252123
7.27,3.217558700084341
7.275,2.883698232556682
7.28,2.7862449251514203
7.285,2.901172154764485
7.29,3.177425627190522
7.295,3.5116476130746643
7.3,3.7442322416721754
7.305,3.8310712644777674
7.31,3.6566193995397946
7.315,3.337541883693761
7.32,2.8350332495850474
7.325,2.045186030095237
7.33,1.316641294477762
7.335,0.8153459448530533
7.34,0.43922195385717455
7.345,0.10811743598398865
7.35,-0.04902371600652504
7.355,-0.009772005019346039
7.36,0.18269053920063816
7.365,0.48901380696794405
7.37,0.6943189851512216
7.375,0.5688440200735244
7.38,0.20105845146415335
7.385,-0.10511425661597273
7.390000000000001,-0.27406201929150753
7.395,-0.3371465937628928
7.4,-0.363975036182981
7.405,-0.49055908603068354
7.41,-0.6588851986870545
7.415,-0.7180752564660559
7.42,-0.6997696636393278
7.425,-0.9832819640360957
7.43,-1.5729135792648918
7.435,-2.170009654422174
7.44,-2.6445671606124073
7.445,-3.009714429857128
7.45,-3.308396192592154
7.455,-3.5145010884768637
7.46,-3.604395967760037
7.465,-3.649488591514738
7.47,-3.8797895624510526
7.475,-4.264422409391166
7.48,-4.364331276576733
7.485,-4.103363133628209
7.49,-3.6336071620165518
7.495,-3.030191772838983
7.5,-2.6467033581211927
7.505,-2.5077298863963025
7.51,-2.537295610679422
7.515000000000001,-2.661555076486445
7.52,-2.666915772899937
7.525,-2.514741350620328
7.53,-2.3143055409337867
7.535,-2.1764204284289113
7.54,-2.0372106736869906
7.545,-1.9220636129859165
7.55,-2.035622756318474
7.555,-2.3924370423915513
7.56,-2.6862006181274216
7.565,-2.521051535343851
7.57,-2.0713663340995745
7.575,-1.8460713044363377
7.58,-1.7881487941761558
7.585,-1.602661041218769
7.59,-1.2499846267939843
7.595,-0.7188120389512879
7.6,-0.03158567837209214
7.605,0.7822815832651974
7.61,1.6303942197490608
7.615,2.0002582446032973
7.62,1.8775566368791718
7.625,1.6585284609388702
7.63,1.5005487638597654
7.635,1.4272475494046781
7.640000000000001,1.4484581012203643
7.645,1.5182046221670715
7.65,1.5129148028554589
7.655,1.3868424448462362
7.66,1.2380594833607073
7.665,1.2004185635743365
7.67,1.3121544698986558
7.675,1.4192369166309098
7.68,1.5225491209509499
7.685,1.6555865433047072
7.69,1.642960812684813
7.695,1.5254614135954092
7.7,1.3792696027412135
7.705,1.2191296572712995
7.71,1.3848952418437102
7.715,1.8734468406166773
7.72,2.1355367393897073
7.725,1.9995472589939198
7.73,1.7545558166332782
7.735,1.5859430581550664
7.74,1.4977061625084842
7.745,1.38607416925433
7.75,1.1174406108827508
7.755,0.6983522687534423
7.76,0.17892366861897985
7.765000000000001,-0.26047349248968943
7.77,-0.50933786514396
7.775,-0.4078741595951366
7.78,-0.01876530393703074
7.785,0.3616942543827435
7.79,0.7157075354723492
7.795,0.5967139040606568
7.8,-0.03596423629553365
7.805000000000001,-0.6478642476218031
7.81,-0.9871615724580041
7.815,-1.2220077072312676
7.82,-1.5788246286091705
7.825,-1.8923995154208357
7.83,-1.903283263468356
7.835,-1.651490162953288
7.84,-1.2532332996027167
7.845,-0.8582301303595393
7.85,-0.7923839776352588
7.855,-0.9838599117285522
7.86,-1.4044581330844257
7.865,-2.0813807121751102
7.87,-2.4068472852939067
7.875,-2.2941380795853927
7.88,-1.8660020216102513
7.885,-1.2239779424257564
7.890000000000001,-0.6443628568405306
7.895,-0.16276376636749534
7.9,0.23328906104575836
7.905,0.5294246792532823
7.91,0.6360533230737921
7.915,0.6081960041396323
7.92,0.6348883146094007
7.925,0.6255125676029558
7.930000000000001,0.3741209663304996
7.935,-0.11185449665674393
7.94,-0.7539366576087783
7.945,-1.320573114461129
7.95,-1.742974563976823
7.955,-1.9858168706789567
7.96,-2.030192487301096
7.965,-2.234961674814803
7.97,-2.7237063427573815
7.975,-2.95627452244874
7.98,-2.7434077731128568
7.985,-2.3397215099145483
7.99,-1.8905743879546513
7.995,-1.5396170108523717
8.0,-1.4095719507260942
8.005,-1.5203785232913636
8.01,-1.732737787507311
8.015,-1.7516516361430718
8.02,-1.3319116068185726
8.025,-0.6897751760150305
8.03,-0.38151969034090094
8.035,-0.46987807066017184
8.040000000000001,-0.8255533060117476
8.045,-1.4326131380787928
8.05,-1.8754938237167003
8.055,-2.057909056632008
8.06,-2.272490628048407
8.065,-2.540712703269889
8.07,-2.6976239260037556
8.075,-2.739664102037756
8.08,-2.7942829044223076
8.085,-2.940959253303948
8.09,-3.1733057492848196
8.095,-3.498007657397666
8.1,-3.802762169897217
8.105,-3.828076696041928
8.11,-3.5709152141083496
8.115,-3.1614938523754077
8.120000000000001,-2.632871070796206
8.125,-2.145965809012994
8.13,-1.7063763042320157
8.135,-1.4383902717851316
8.14,-1.3692081510147478
8.145,-1.0578132641221492
8.15,-0.5289469282267308
8.155,-0.3941842364509379
8.16,-0.6239497093230388
8.165000000000001,-0.6884459359550594
8.17,-0.40522031753456145
8.175,-0.14774077157538584
8.18,-0.22814027551119334
8.185,-0.44193070802501766
8.19,-0.48872881811193725
8.195,-0.22830873407988525
8.2,0.40728282023664186
8.205,1.1452398641408201
8.21,1.5683989016811501
8.215,1.8192573719429266
8.22,2.1244593045165447
8.225,2.482895372323314
8.23,2.809826317044377
8.235,3.067455171753877
8.24,3.255532830047662
8.245000000000001,3.36946423347263
8.25,3.4193656491262527
8.255,3.4207385690269123
8.26,3.6556269717510186
8.265,4.251486625892862
8.27,4.755215701029474
8.275,4.783696229195397
8.28,4.478266867569348
8.285,4.068768618705486
8.290000000000001,3.598130941471629
8.295,3.1690746103064615
8.3,2.7897461091880813
8.305,2.434552648656996
8.31,2.119024226164329
8.315,1.9671181623662117
8.32,2.023202372693336
8.325,2.2743382011430255
8.33,2.66119359201063
8.335,2.815157550328268
8.34,2.796363276984989
8.345,3.026977948684147
8.35,3.510647219564895
8.355,3.832189866286915
8.36,3.905352508186945
8.365,4.021583677494462
8.370000000000001,4.295467152162264
8.375,4.512381737560648
8.38,4.5477543498087805
8.385,4.530453473337818
8.39,4.575726778318636
8.395,4.644855263417588
8.4,4.431261565901407
8.405,3.9115043875905644
8.41,3.8341520405577585
8.415000000000001,4.2007704918980515
8.42,4.406019389794406
8.425,4.4078066533990095
8.43,4.386116446040976
8.435,4.391305449655853
8.44,4.433454546805131
8.445,4.491619020547608
8.45,4.192575681514994
8.455,3.3014083848001623
8.46,2.3090515925078736
8.465,1.7712792501119685
8.47,1.4819304171365615
8.475,1.0798103092513913
8.48,0.5988807543617002
8.485,0.05304175379248655
8.49,-0.5177136434426611
8.495000000000001,-0.9927748994882342
8.5,-1.3464532042435493
8.505,-1.3555533060670482
8.51,-1.0721410988353188
8.515,-1.0069572286346573
8.52,-1.2098095928928279
8.525,-1.6487135913791553
8.53,-2.1928313298115776
8.535,-2.5223171559288513
8.540000000000001,-2.6002540968181878
8.545,-2.547361192698041
8.55,-2.43446214790985
8.555,-2.4379221961639836
8.56,-2.6657892360088375
8.565,-2.846917920798025
8.57,-2.703473355141954
8.575000000000001,-2.381525612125327
8.58,-2.250737749229897
8.585,-2.3936303159800496
8.59,-2.5367170319535743
8.595,-2.599926976075078
8.6,-2.981622782404605
8.605,-3.7618971809155917
8.61,-4.389498417040309
8.615,-4.6990599616213995
8.620000000000001,-4.953682177817233
8.625,-5.331951513886626
8.63,-5.4210399177222195
8.635,-4.974171916361849
8.64,-4.4783433296370765
8.645,-4.2687919259329545
8.65,-3.989118968127936
8.655,-3.344009293610373
8.66,-2.658873654212767
8.665000000000001,-2.522813826055841
8.67,-2.8425321207586416
8.675,-3.1096405249484063
8.68,-3.2909085035973544
8.685,-3.360472396221429
8.69,-3.3502782070992727
8.695,-3.474311610553665
8.700000000000001,-3.7424775280093936
8.705,-3.8805924899586444
8.71,-3.7523498365382486
8.715,-3.363034923508423
8.72,-2.8959234282245454
8.725,-2.609790581480461
8.73,-2.467162678760611
8.735,-2.2941977980026267
8.74,-1.984723762209252
8.745000000000001,-1.5235477959373618
8.75,-0.9673103701835646
8.755,-0.38377397082180187
8.76,-0.07442329421427266
8.765,-0.08256248406912856
8.77,-0.08041906103261903
8.775,-0.04895399826620145
8.78,0.3409613737603263
8.785,1.1241310522288104
8.790000000000001,1.8616604439432893
8.795,2.4192593009270564
8.8,2.7404821281902056
8.805,2.8455747880905413
8.81,2.877160993584821
8.815,3.0330354883956394
8.82,3.220813895231087
8.825000000000001,3.1598434026167674
8.83,2.874795011344187
8.835,2.4990614247379828
8.84,2.100910008067111
8.845,1.9019013394464135
8.85,1.918948941170089
8.855,2.1708461300743553
8.86,2.627316816435534
8.865,2.9598348748603427
8.870000000000001,3.2086405531699724
8.875,3.6914143760724074
8.88,4.367368108064093
8.885,4.469220347114454
8.89,3.885488283250875
8.895,3.3627167522227794
8.9,3.2445296283805924
8.905,3.0965625968520505
8.91,2.523395574242493
8.915000000000001,1.7999701624763136
8.92,1.367821372975241
8.925,1.3228276783570956
8.93,1.6019498051995578
8.935,1.9300548548905025
8.94,1.8194507643848106
8.945,1.4408787947878663
8.950000000000001,1.3560342870449997
8.955,1.523854222632354
8.96,1.7945869449281888
8.965,2.1540528488165274
8.97,2.22021371606363
8.975,1.8853168873363497
8.98,1.2548902771827974
8.985,0.5543113354057632
8.99,-0.04530415554287784
8.995000000000001,-0.5507697936626209
9.0,-0.8414616761013392
9.005,-0.906610492249878
9.01,-0.908908945211387
9.015,-0.933362160014441
9.02,-0.8945588781268508
9.025,-0.7164848432548427
9.03,-0.5077932594464296
9.035,-0.5856671422142501
9.04,-0.9546798570012687
9.045,-1.5207079562509687
9.05,-2.265685502327061
9.055,-2.9820273562008275
9.06,-3.6391715895778773
9.065,-4.116071573057299
9.07,-4.362459544664688
9.075,-4.38537667212083
9.08,-4.237612474541017
9.085,-3.850097921066199
9.09,-3.2251745548025808
9.095,-2.7328302781653298
9.1,-2.6027241220113067
9.105,-2.672974664842839
9.11,-2.824211954676877
9.115,-3.028742289431143
9.12,-3.0738409229237518
9.125,-2.9746453323350726
9.13,-3.1041558475832502
9.135,-3.505652400291914
9.14,-3.659899160133858
9.145,-3.461968796659773
9.15,-2.9185829423359073
9.155,-2.1752350929754916
9.16,-1.6666760860657537
9.165,-1.321446890820574
9.17,-0.8367509716557813
9.175,-0.19006327572707085
9.18,0.402538087193407
9.185,0.7133318448467196
9.19,0.7915807126720203
9.195,0.979705935390011
9.2,1.3034283470369048
9.205,1.459203924495813
9.21,1.4844652777866638
9.215,1.5601003046152044
9.22,1.5471701427150104
9.225,1.2333074133668764
9.23,0.696270202316543
9.235,0.6370957230520524
9.24,1.092913553584451
9.245,1.3665862150950139
9.25,1.447944729696994
9.255,1.4318786006046311
9.26,1.2395929754858925
9.265,0.9635064444227482
9.27,0.7226254587775093
9.275,0.4944478206955255
9.28,0.17986681349429495
9.285,-0.20112841307475546
9.29,-0.5032141788023283
9.295,-0.6888776229190907
9.3,-0.7146628269437612
9.305,-0.5826161295662218
9.31,-0.3947682231279901
9.315,-0.10884476358331904
9.32,0.4111595688411853
9.325,1.0978054524247731
9.33,1.3739611792932096
9.335,1.269544915341073
9.34,1.0438374185622035
9.345,0.6301548099032812
9.35,0.18515663451333164
9.355,-0.07190135262835753
9.36,-0.13796444485040796
9.365,-0.10913693623073384
9.37,-0.02022407310212944
9.375,0.09615021932097326
9.38,0.34309610622344766
9.385,0.841196322460891
9.39,1.4016072119327385
9.395,1.7491308210894994
9.4,1.9687633051789215
9.405,1.8666362825833558
9.41,1.3964407286209781
9.415,1.1898536726459557
9.42,1.3363734660479898
9.425,1.4148896915836815
9.43,1.3347616859298606
9.435,1.1879258980903447
9.44,0.9839064915125146
9.445,0.8523541347756987
9.45,0.9205301383552944
9.455,1.2385527495326065
9.46,1.7525089417030013
9.465,2.184727482684311
9.47,2.227255052720889
9.475,2.0950329139027333
9.48,2.286389643514989
9.485,2.7038518354981163
9.49,2.7812820204266204
9.495,2.473295203349494
9.5,2.2976664028284475
9.505,2.3103192426590544
9.51,2.2271815459993025
9.515,2.0389611224385646
9.52,1.8770090254132141
9.525,1.7677832867932157
9.53,1.6756360046672363
9.535,1.5673895631681982
9.54,1.5072988689074007
9.545,1.5299408787781719
9.55,1.5734254717698701
9.555,1.5837280461463754
9.56,1.639946843118784
9.565,1.8296892623334708
9.57,2.0802286587684145
9.575,2.145402677687709
9.58,1.9145937651370002
9.585,1.6841281152275267
9.59,1.5911686475087425
9.595,1.5748715910121198
9.6,1.572970955888829
9.605,1.6457144339348069
9.61,1.8320030395596743
9.615,1.9371465785392972
9.62,1.9198113342515581
9.625,1.7612452523573239
9.63,1.4843450930240767
9.635,1.1143494863437802
9.64,0.5534987858818701
9.645,-0.14069202539904946
9.65,-0.6980044614033092
9.655,-1.1207981913039347
9.66,-1.5345500132648282
9.665,-1.870490434188729
9.67,-2.0976028500302415
9.675,-2.280452526189445
9.68,-2.4523512583744
9.685,-2.572403942352721
9.69,-2.575184000753622
9.695,-2.479617883519251
9.7,-2.364201694785158
9.705,-2.2228150752693248
9.71,-1.8896009025891058
9.715,-1.4615647384128359
9.72,-1.228038922798814
9.725,-1.1242763940303493
9.73,-0.9176973770701904
9.735,-0.649403721883399
9.74,-0.6105150437943108
9.745,-0.9267328861446433
9.75,-1.3606999786536162
9.755,-1.6257716626918892
9.76,-1.8228930306924014
9.765,-2.06506865733341
9.77,-2.226958221446727
9.775,-1.997778915214576
9.78,-1.46116929636363
9.785,-1.2054201060605951
9.79,-1.168983183450505
9.795,-1.1179028851132906
9.8,-1.0494581666494829
9.805,-0.9008565841968982
9.81,-0.6392990517339339
9.815,-0.20801817531598324
9.82,0.3233980289346017
9.825,0.8299031305018143
9.83,1.2213638729336784
9.835,1.3634841430802107
9.84,1.3141821338463233
9.845,1.274650591846718
9.85,1.2873467436591817
9.855,1.242515090218195
9.86,0.987928144133523
9.865,0.5506434483891218
9.87,0.21334947349723235
9.875,-0.02453262014824084
9.88,-0.29903505684372
9.885,-0.55399031394239
9.89,-0.592337222093691
9.895,-0.4871182087027415
9.9,-0.5196243824301224
9.905,-0.7005908468616735
9.91,-0.9663402057731876
9.915,-1.2515977715045143
9.92,-1.4992188828122557
9.925,-1.7613339036161222
9.93,-1.8908919483955702
9.935,-1.5914885733867947
9.94,-1.0812272317241756
9.945,-0.8770424805371437
9.95,-0.8959838151137491
9.955,-0.8517449109917485
9.96,-0.7108291897499351
9.965,-0.6265360200272944
9.97,-0.7392935477481749
9.975,-0.8865882958587163
9.98,-0.875954442437901
9.985,-0.8469727397689424
9.99,-1.0135708969817014
9.995,-1.28760510129107
10.0,-1.3996050631144648
10.005,-1.2066545455776527
10.01,-0.8555706088645058
10.015,-0.5269541092863177
10.02,-0.19947522211288712
10.025,0.07461190199630316
10.03,-0.13746637226420425
10.035,-0.8103168479642175
10.04,-1.2620314975601388
10.045,-1.4087848294299368
10.05,-1.3397523015163866
10.055,-1.0862388185023466
10.06,-0.8271389117615284
10.065,-0.553788878955588
10.07,-0.3941235564815557
10.075,-0.44244702371405253
10.08,-0.6037028297667328
10.085,-0.8487072537917948
10.09,-0.8636920884441798
10.095,-0.35631922247675973
10.1,0.36726398505041147
10.105,0.8667174290788767
10.11,1.07524082934222
10.115,1.0824831319367667
10.12,1.0435957441740482
10.125,1.0325916978403915
10.13,0.9607818575880742
10.135,0.835273399082443
10.14,0.7273445306397399
10.145,0.5326078237014228
10.15,0.13869769375986216
10.155,-0.3067919086665849
10.16,-0.6755004949092756
10.165,-0.6870354863118388
10.17,-0.31198919174476647
10.175,0.09564607481685006
10.18,0.3923445128118854
10.185,0.48989406081004816
10.19,0.19229537765035615
10.195,-0.37315086351698135
10.2,-0.78292808294199
10.205,-0.9428462694801134
10.21,-0.8913123689498058
10.215,-0.6312269229123632
10.22,-0.33723456921476647
10.225,-0.13970413982535504
10.23,-0.16494712048015003
10.235,-0.31365283881075545
10.24,-0.4167078474981186
10.245,-0.5373136186478353
10.25,-0.5701643454068275
10.255,-0.42151937941532225
10.26,-0.3548429956848428
10.265,-0.5999806442315584
10.27,-1.0140005357380826
10.275,-1.3880211227135766
10.28,-1.608713398837368
10.285,-1.572143416080456
10.29,-1.3777940692947463
10.295,-1.1853177925423064
10.3,-0.8892181245653472
10.305,-0.4381364024330462
10.31,0.028123668627795754
10.315,0.3568364834098432
10.32,0.6416653297672694
10.325,1.2373463210380977
10.33,2.1010480095027932
10.335,2.699241026867967
10.34,3.0486775294954693
10.345,3.2829913356834672
10.35,3.3088811191526726
10.355,3.187432603100106
10.36,3.00147945041126
10.365,2.7342839371293794
10.37,2.5162019051561
10.375,2.352829263291304
10.38,2.064760389699939
10.385,1.7208629230883974
10.39,1.573222196413008
10.395,1.6333136928814935
10.4,1.6873054633086584
10.405,1.745539691370855
10.41,2.110795204393694
10.415,2.7322416742615143
10.42,2.981134152130996
10.425,2.7919849139601114
10.43,2.632625937866481
10.435,2.604179836595207
10.44,2.374755337194351
10.445,1.9178932419459611
10.45,1.5171143374530347
10.455,1.2967925240623766
10.46,1.1531997389801971
10.465,0.9397099593949299
10.47,0.6733866611967406
10.475,0.31643481559695563
10.48,-0.10088458675067616
10.485,-0.18493569221661996
10.49,0.004880640746177056
10.495,-0.06438160035618774
10.5,-0.3081804357297051
10.505,-0.28449247490508833
10.51,-0.028276029557037646
10.515,0.15453476926886534
10.52,0.2754743475720791
10.525,0.4317846939788039
10.53,0.646272600205356
10.535,0.8833249832440451
10.54,1.0782396876627311
10.545,1.1909439789079181
10.55,1.2940469905019467
10.555,1.3370060382820814
10.56,1.1287032882059207
10.565,0.8423144766085957
10.57,0.9208087069873441
10.575,1.283432351818643
10.58,1.4454457270221472
10.585,1.2772204538530627
10.59,0.9826047240026426
10.595,0.6748187143253066
10.6,0.30264295206362013
10.605,-0.18027564419631403
10.61,-0.5109205087532793
10.615,-0.7271942690457363
10.62,-0.9409240414628306
10.625,-1.0806294633712137
10.63,-1.229188343245027
10.635,-1.4193179681288939
10.64,-1.5150790717997085
10.645,-1.4676827582927008
10.65,-1.3020167343372697
10.655,-1.0550248444252914
10.66,-0.8318804443829576
10.665,-0.9180763176256733
10.67,-1.2180532947601475
10.675,-1.1347426706485364
10.68,-0.7985355052454497
10.685,-0.9569986657746399
10.69,-1.5706826692425284
10.695,-1.9704650929405587
10.7,-2.044556646176564
10.705,-1.9535386194370719
10.71,-1.7859039741390288
10.715,-1.322423429734932
10.72,-0.5335888990153832
10.725,0.10141060972008235
10.73,0.36227702177559507
10.735,0.413460283951147
10.74,0.346738369316664
10.745,0.28787612940801455
10.75,0.5643205794841517
10.755,1.1423482554747701
10.76,1.6331388989717512
10.765,1.9400279352858403
10.77,2.1832635014572266
10.775,2.3881859107270182
10.78,2.5100897260520503
10.785,2.5515920450672103
10.79,2.436661656989711
10.795,2.1593916161594353
10.8,2.1906581541186823
10.805,2.6037075914074093
10.81,3.0775894631831164
10.815,3.519388470033426
10.82,3.700370876565731
10.825,3.4157137239764994
10.83,2.9769625477230606
10.835,2.6585467366533733
10.84,2.257601950103305
10.845,1.770856284679545
10.85,1.4426138061574794
10.855,1.5181797207536694
10.86,1.8907708647684331
10.865,1.9629259956425111
10.87,1.6838694576431554
10.875,1.1076754796615693
10.88,0.3328621715353818
10.885,-0.04756346652264584
10.89,-0.00020337785116184698
10.895,-0.13869584466904133
10.9,-0.5980033318652722
10.905,-1.018238664474558
10.91,-1.2822851532546917
10.915,-1.3639424233765893
10.92,-1.1927720983466397
10.925,-1.112388655954542
10.93,-1.6765131155342026
10.935,-2.6635154999290895
10.94,-3.281108857539964
10.945,-3.439442885445409
10.95,-3.282457860485588
10.955,-2.9162904869703405
10.96,-2.8215524516718022
10.965,-2.947168194657325
10.97,-3.2266579897233463
10.975,-3.766272720269662
10.98,-3.9256317885764527
10.985,-3.5096533006574866
10.99,-2.912054985830111
10.995,-2.301664060541692
11.0,-1.7314627686890403
11.005,-1.2797982398846006
11.01,-1.1291813216316788
11.015,-1.412517887119542
11.02,-1.922607664941988
11.025,-2.3206504465601716
11.03,-2.588753468416126
11.035,-2.7030559567737
11.04,-2.63281870453547
11.045,-2.220940462109708
11.05,-1.509594956548717
11.055,-1.2244165389330663
11.06,-1.440433219091813
11.065,-1.7424828411451685
11.07,-2.031950590738633
11.075,-2.114552185250061
11.08,-1.860811114664949
11.085,-1.3944525792581697
11.09,-0.987774304982791
11.095,-0.6428606500834542
11.1,-0.11119279484014374
11.105,0.4813555226695718
11.11,0.6982953216114115
11.115,0.5485756860097193
11.12,0.30676927899192186
11.125,0.03703640986896295
11.13,0.055522779020961255
11.135,0.4380880062493865
11.14,0.8665496466484883
11.145,1.1827662067254574
11.15,1.2873132636311606
11.155,1.3990779416281183
11.16,1.7697744188435196
11.165,2.247122955173929
11.17,2.452132255630786
11.175,2.284686610882138
11.18,2.104672999549222
11.185,2.257480012989259
11.19,2.6550726592240332
11.195,3.0783060973742895
11.2,3.3803693553339427
11.205,3.2796360554275052
11.21,2.8155786793194584
11.215,2.4640136822317946
11.22,2.354091908726824
11.225,2.4292000381248826
11.23,2.6761068537276684
11.235,2.793962964684997
11.24,2.663826465743971
11.245,2.357381636774998
11.25,1.9357252877139581
11.255,1.2477491794030962
11.26,0.29948098589699484
11.265,-0.5753009570839286
11.27,-1.1347562795902646
11.275,-1.3184113111016873
11.28,-1.2334671879651806
11.285,-1.0345774198011004
11.29,-0.8612681742819818
11.295,-0.8295556222875506
11.3,-1.1878584156393788
11.305,-1.8338983084871758
11.31,-2.232525647380225
11.315,-2.3633387023340466
11.32,-2.404604156284381
11.325,-2.337985843040063
11.33,-1.9705256160605922
11.335,-1.3478885980065738
11.34,-0.8704016951456381
11.345,-0.6469019528247851
11.35,-0.6927118217857808
11.355,-0.8992570155647209
11.36,-0.932567792709381
11.365,-0.6794142786218182
11.37,-0.21942544195623745
11.375,0.4098840227083733
11.38,1.0864600375811873
11.385,1.6275207625088521
11.39,2.001749888999921
11.395,1.9628011180522786
11.4,1.5124465366345545
11.405,1.3107706331550997
11.41,1.434309324328377
11.415,1.3791433558082737
11.42,1.0496523852942456
11.425,0.8020948599370339
11.43,0.723799652536016
11.435,0.6418724405639582
11.44,0.486569491998711
11.445,0.46484437706900184
11.45,0.5861434576253753
11.455,0.7316621933092219
11.46,0.9189523558257187
11.465,1.0049406570047648
11.47,0.9239513847654126
11.475,0.8322971826337174
11.48,0.7399231015692092
11.485,0.6509424506723265
11.49,0.5611177147944802
11.495,0.44742706357502027
11.5,0.4956063708556546
11.505,0.6407750142861373
11.51,0.7482846537409488
11.515,0.9002555605983062
11.52,1.0077588879931652
11.525,1.0670151339994516
11.53,1.1198197536361274
11.535,1.0605293858717015
11.54,0.8727183437123359
11.545,0.6164822355249175
11.55,0.35023771160592976
11.555,0.21896941166228664
11.56,0.20732416221139946
11.565,0.16849695081806354
11.57,0.15841349790673215
11.575,0.29479969735520783
11.58,0.5083363276296764
11.585,0.39933498096124376
11.59,-0.02474821363012275
11.595,-0.4354249126267258
11.6,-0.8162520969520015
11.605,-0.6969920156547832
11.61,-0.06073205058765564
11.615,0.21597388101110054
11.62,-0.02622245631395645
11.625,-0.268919402904935
11.63,-0.4109473424236164
11.635,-0.7002139756966913
11.64,-1.1452877556541856
11.645,-1.5924249543306037
11.65,-1.9188598848303877
11.655,-2.0444569645069186
11.66,-1.9248782745569137
11.665,-1.7129891755556104
11.67,-1.6934281850028174
11.675,-1.7071221042629408
11.68,-1.4064974478189582
11.685,-0.8948549200516501
11.69,-0.5765942603428665
11.695,-0.3934206521398421
11.7,-0.19843396507510344
11.705,-0.13496306716966544
11.71,-0.3098879686677982
11.715,-0.6815808095921148
11.72,-1.0357973870605919
11.725,-1.1507722691443338
11.73,-0.9947162868395425
11.735,-0.6793055159001609
11.74,-0.3133152168543317
11.745,-0.036911391581800346
11.75,0.017802741242306956
11.755,-0.4047578067068093
11.76,-1.2200730622265896
11.765,-1.9572170149920587
11.77,-2.574824359688654
11.775,-2.934747368491459
11.78,-3.040858346907054
11.785,-3.2775588734787036
11.79,-3.685767398651605
11.795,-3.8289996015761223
11.8,-3.7115806599617636
11.805,-3.8226272947950415
11.81,-4.192779729713097
11.815,-4.4529701829988175
11.82,-4.47190446824239
11.825,-4.4678724789562265
11.83,-4.623292504014924
11.835,-4.780433290409639
11.84,-4.661718045845204
11.845,-4.226751522330192
11.85,-3.530917385950105
11.855,-2.7295940924094326
11.86,-2.5299723030899233
11.865,-2.8807039754830384
11.87,-2.735653319932054
11.875,-2.031004709256359
11.88,-1.7549230616455085
11.885,-2.0164543095960483
11.89,-2.2518059257211456
11.895,-2.259612469816743
11.9,-2.096805351548021
11.905,-1.8345794011830399
11.91,-1.5861907903479813
11.915,-1.4916551152061674
11.92,-1.435296723717241
11.925,-1.110482364455748
11.93,-0.4988600614123716
11.935,0.07384142720907215
11.94,0.48643679416694763
11.945,1.0036623989266291
11.95,1.649924541216451
11.955,1.9503303494838347
11.96,1.8933299790432507
11.965,1.7981812459706623
11.97,1.7056477727540407
11.975,1.5181176048967062
11.98,1.2642836144834229
11.985,0.9269293112349613
11.99,0.4414949201370806
11.995,-0.12853861114155904
12.0,-0.7255731490498387
12.005,-1.067316605543489
12.01,-0.8926842663412824
12.015,-0.52293358475059
12.02,-0.3550989183292983
12.025,-0.3061005447169085
12.03,-0.3674050719210108
12.035,-0.5044933198398107
12.04,-0.4375000181407902
12.045,-0.18071675740377435
12.05,-0.2784228621011422
12.055,-0.8001880188786751
12.06,-1.1336185951214257
12.065,-1.1115780739610945
12.07,-1.0133304029629682
12.075,-1.0035841422518417
12.08,-0.9816888741764123
12.085,-0.8237978362968367
12.09,-0.5824331816002313
12.095,-0.35636110686932776
12.1,-0.21695272346086955
12.105,-0.2974084375505337
12.11,-0.5150134705871693
12.115,-0.46631418929979185
12.12,-0.10354295331862476
12.125,0.20921289760186376
12.13,0.29775757946336256
12.135,0.36393908675163467
12.14,0.5405049928421979
12.145,1.002036654965648
12.15,1.6779667078257623
12.155,2.2057600781354525
12.16,2.589236105353758
12.165,3.007129421799155
12.17,3.486667990650103
12.175,3.894348131866943
12.18,4.20451803007956
12.185,4.381831375298384
12.19,4.289225220643233
12.195,4.078101938006051
12.2,3.9961669460966083
12.205,3.9247346192128187
12.21,3.8016838346402584
12.215,3.6363323862208894
12.22,3.2967150392589333
12.225,2.835141223761879
12.23,2.5509872411411187
12.235,2.4541711361000687
12.24,2.3225680904665493
12.245,2.166970342872015
12.25,2.3436437355443203
12.255,2.8198515488037237
12.26,2.922233345148794
12.265,2.402287528891597
12.27,1.6724456685023317
12.275,1.1042972934667663
12.28,0.7711006388748199
12.285,0.6452359290711434
12.29,0.6118943843582533
12.295,0.4816222344341968
12.3,0.15774148541111344
12.305,-0.393737908463773
12.31,-1.0234856295965846
12.315,-1.5251512061087389
12.32,-1.9114087212708568
12.325,-2.2309647814369407
12.33,-2.502492541105848
12.335,-2.7950601253061307
12.34,-3.077691816668688
12.345,-3.381899652860263
12.35,-3.7014651678619166
12.355,-3.9525037769083533
12.36,-4.110928927118534
12.365,-4.013549867828302
12.37,-3.6046329035000197
12.375,-3.265507899776926
12.38,-3.393692167147265
12.385,-3.791430645299622
12.39,-3.944740874062115
12.395,-3.8549613422516478
12.4,-3.923044066693883
12.405,-4.193130331028305
12.41,-4.348935357194095
12.415,-4.344371623712909
12.42,-4.083417329123053
12.425,-3.6568730780848386
12.43,-3.227916354820148
12.435,-2.7411971121692593
12.44,-2.4535399734228664
12.445,-2.3864030594492958
12.45,-2.2368953658176847
12.455,-2.0308129701310187
12.46,-2.07822914268082
12.465,-2.42196084067518
12.47,-2.8291412225762524
12.475,-3.0498680941581955
12.48,-3.0837367777980225
12.485,-3.0780105041658206
12.49,-3.0593773727393376
12.495,-2.910298629585292
12.5,-2.6016148732964535
12.505,-2.5099194132080975
12.51,-2.728883384412798
12.515,-2.817582523008405
12.52,-2.6475545258938054
12.525,-2.3758632346240454
12.53,-2.06869522390314
12.535,-1.8657423025329307
12.54,-1.8759683629952926
12.545,-2.041563942581804
12.55,-2.2956197785280748
12.555,-2.5264675229158065
12.56,-2.4840500179193614
12.565,-2.0767119422005518
12.57,-1.4300429669747128
12.575,-0.7093400644660819
12.58,-0.15846663919814344
12.585,0.15558818230512744
12.59,0.13474218293140944
12.595,-0.12098825539629965
12.6,-0.24431388626752945
12.605,-0.21299074783911207
12.61,-0.08473529407631963
12.615,0.11960811034103305
12.62,0.19891268934812106
12.625,0.007148097334705554
12.63,0.008551057832244552
12.635,0.5063110640873348
12.64,1.0148848744563292
12.645,1.1980485694878085
12.65,1.2661110062659153
12.655,1.3946631476700748
12.66,1.5833326034609612
12.665,1.8317901984298892
12.67,2.119428012213319
12.675,2.1432007017858186
12.68,1.8428220118305494
12.685,1.4586433081716703
12.69,1.0102375370360304
12.695,1.0373172849025698
12.7,1.577823604407171
12.705,1.6346803972620065
12.71,1.0070930787397547
12.715,0.33357578205603455
12.72,-0.034313413199603945
12.725,-0.20431081641548662
12.73,-0.325898890609966
12.735,-0.41044763859051747
12.74,-0.48187891696397
12.745,-0.530613584319708
12.75,-0.5092752938314096
12.755,-0.41573339560984435
12.76,-0.27597707161292917
12.765,-0.09118705802766144
12.77,0.10911327021531494
12.775,0.3186372627810802
12.78,0.5582881235153618
12.785,0.8302070244134607
12.79,1.449768843977024
12.795,2.3724912750455465
12.8,3.0129625369160666
12.805,3.33699202059704
12.81,3.629910375018327
12.815,3.9791051738087364
12.82,4.232458599181595
12.825,4.161507929975744
12.83,3.810445092747928
12.835,3.3714633942093797
12.84,2.910726168731115
12.845,2.7190691431563203
12.85,2.82755074504339
12.855,2.972047972832386
12.86,3.1534015014095864
12.865,3.369579905674228
12.87,3.6194226741575295
12.875,3.9017447853241354
12.88,4.217378901904883
12.885,4.306670652290748
12.89,4.027675332226213
12.895,3.752538004091269
12.9,3.7628431766235972
12.905,3.942344848780363
12.91,4.146156297071645
12.915,4.510285482808948
12.92,5.099715750162137
12.925,5.772869244387779
12.93,6.399741298507565
12.935,6.949838828282099
12.94,7.3777287840450105
12.945,7.7108185074437605
12.95,7.695327622668615
12.955,7.24858849612582
12.96,6.8913772928664505
12.965,6.733324283492272
12.97,6.361417617294237
12.975,5.766293963492456
12.98,5.338031231313392
12.985,5.08973769002391
12.99,4.784317005310866
12.995,4.371489308264786
13.0,3.8332643424518396
13.005,3.178630392431766
13.01,2.513339450767669
13.015,1.9125913827081242
13.02,1.3872211177415281
13.025,0.9494802632733355
13.03,0.6144558798332854
13.035,0.4191658497350015
13.04,0.3502407375531399
13.045,0.05893834031694405
13.05,-0.5776099339399663
13.055,-1.398859428296547
13.06,-2.2054697167161783
13.065,-2.6676826151859987
13.07,-2.8763274378461223
13.075,-3.2089617101004877
13.08,-3.6964422721349304
13.085,-4.044574388994029
13.09,-4.17072061665313
13.095,-4.206419607137372
13.1,-4.2232321191279
13.105,-4.238230851033324
13.11,-4.264008020904957
13.115,-4.2790018426546625
13.12,-4.261427410933934
13.125,-4.182220252994929
13.13,-3.98030675187588
13.135,-3.6331308420765587
13.14,-2.9992177362540917
13.145,-2.352234131222701
13.15,-1.6850706268691673
13.155,-1.004962041139872
13.16,-0.31914319198117935
13.165,0.36515110266058004
13.17,1.0406860248390548
13.175,1.7002267566078655
13.18,2.336538480020702
13.185,2.942386377131156
13.19,3.5105356299929493
13.195,4.033751420659656
13.2,4.504798931184985
13.205,4.916443343622538
13.21,5.261449840025995
13.215,5.532583602448988
13.22,5.722609812945184
13.225,5.824293653568195
13.23,5.830400306371705
13.235,5.733694953409385
13.24,5.526942776734802
13.245,5.202908958401666
13.25,4.754358680463604
13.255,4.174057124974287
13.26,3.4547694739873624
13.265,2.5892609095564363
