time,voltage
0,0
0,-595
0,-16
0,-15
0,-14
0,-13
0,-12
0,-11
0,-596
0,-10
0,-9
0,-8
0,-597
0,-598
0,-599
0,-600
0,-601
0,-602
0,-603
0,-604
0,-605
0,-606
0,-607
0,-608
0,-17
0,-609
0,-18
0,-20
0,-582
0,-583
0,-30
0,-584
0,-585
0,-29
0,-586
0,-587
0,-28
0,-588
0,-589
0,-27
0,-590
0,-591
0,-26
0,-592
0,-25
0,-24
0,-593
0,-23
0,-22
0,-21
0,-594
0,-19
0,-610
0,-611
0,-612
0,-640
0,-641
0,-642
0,-643
0,-644
0,-645
0,-646
0,-647
0,-648
0,-649
0,-650
0,-651
0,-652
0,-653
0,-654
0,-655
0,-656
0,-657
0,-658
0,-659
0,-660
0,-661
0,-662
0,-639
0,-638
0,-637
0,-636
0,-613
0,-614
0,-7
0,-615
0,-616
0,-617
0,-618
0,-619
0,-620
0,-621
0,-622
0,-581
0,-623
0,-625
0,-626
0,-627
0,-628
0,-629
0,-630
0,-631
0,-632
0,-633
0,-634
0,-635
0,-624
0,-31
0,-580
0,-579
0,-519
0,-520
0,-521
0,-522
0,-523
0,-49
0,-524
0,-48
0,-525
0,-526
0,-47
0,-527
0,-528
0,-46
0,-529
0,-530
0,-45
0,-531
0,-532
0,-44
0,-533
0,-43
0,-534
0,-518
0,-50
0,-517
0,-516
0,-495
0,-496
0,-497
0,-498
0,-53
0,-499
0,-500
0,-501
0,-502
0,-503
0,-504
0,-535
0,-505
0,-507
0,-508
0,-509
0,-510
0,-52
0,-511
0,-512
0,-513
0,-51
0,-514
0,-515
0,-506
0,-663
0,-42
0,-537
0,-561
0,-562
0,-36
0,-563
0,-564
0,-565
0,-35
0,-566
0,-567
0,-568
0,-34
0,-569
0,-570
0,-571
0,-572
0,-573
0,-33
0,-574
0,-575
0,-576
0,-577
0,-32
0,-578
0,-560
0,-37
0,-559
0,-558
0,-538
0,-539
0,-540
0,-541
0,-542
0,-543
0,-544
0,-41
0,-545
0,-546
0,-547
0,-536
0,-548
0,-40
0,-550
0,-551
0,-552
0,-553
0,-39
0,-554
0,-555
0,-556
0,-38
0,-557
0,-549
0,-664
0,-665
0,-666
0,-801
0,-802
0,-803
0,-804
0,-805
0,-806
0,-807
0,-808
0,-809
0,-810
0,-811
0,-812
0,-813
0,-814
0,-815
0,-816
0,-817
0,-818
0,-819
0,-820
0,-821
0,-822
0,-823
0,-800
0,-799
0,-798
0,-797
0,-774
0,-775
0,-776
0,-777
0,-778
0,-779
0,-780
0,-781
0,-782
0,-783
0,-784
0,-824
0,-785
0,-787
0,-788
0,-789
0,-790
0,-791
0,-792
0,-3
0,-793
0,-794
0,-795
0,-796
0,-786
0,-773
0,-825
0,-827
0,-856
0,-857
0,-858
0,-859
0,-860
0,-2
0,-861
0,-862
0,-863
0,-864
0,-865
0,-866
0,-867
0,-868
0,-869
0,-870
0,-871
0,-872
0,-873
0,-874
0,-875
0,-876
0,-877
0,-855
0,-854
0,-853
0,-852
0,-828
0,-829
0,-830
0,-831
0,-832
0,-833
0,-834
0,-835
0,-836
0,-837
0,-838
0,-826
0,-839
0,-841
0,-842
0,-843
0,-844
0,-845
0,-846
0,-847
0,-848
0,-849
0,-850
0,-851
0,-840
0,-494
0,-772
0,-770
0,-694
0,-695
0,-696
0,-697
0,-698
0,-699
0,-700
0,-701
0,-702
0,-703
0,-704
0,-705
0,-706
0,-707
0,-708
0,-709
0,-710
0,-711
0,-712
0,-713
0,-714
0,-715
0,-716
0,-693
0,-692
0,-691
0,-690
0,-667
0,-668
0,-669
0,-670
0,-671
0,-672
0,-673
0,-674
0,-675
0,-676
0,-677
0,-717
0,-678
0,-680
0,-681
0,-682
0,-683
0,-6
0,-684
0,-685
0,-686
0,-687
0,-688
0,-689
0,-679
0,-771
0,-718
0,-720
0,-749
0,-5
0,-750
0,-751
0,-752
0,-753
0,-754
0,-755
0,-756
0,-757
0,-758
0,-759
0,-760
0,-761
0,-762
0,-763
0,-4
0,-764
0,-765
0,-766
0,-767
0,-768
0,-769
0,-748
0,-747
0,-746
0,-745
0,-721
0,-722
0,-723
0,-724
0,-725
0,-726
0,-727
0,-728
0,-729
0,-730
0,-731
0,-719
0,-732
0,-734
0,-735
0,-736
0,-737
0,-738
0,-739
0,-740
0,-741
0,-742
0,-743
0,-744
0,-733
0,-493
0,-492
0,-491
0,-228
0,-229
0,-230
0,-231
0,-232
0,-233
0,-234
0,-235
0,-236
0,-237
0,-238
0,-239
0,-240
0,-241
0,-242
0,-243
0,-244
0,-245
0,-246
0,-247
0,-248
0,-249
0,-250
0,-227
0,-226
0,-89
0,-225
0,-210
0,-211
0,-98
0,-212
0,-213
0,-97
0,-214
0,-215
0,-96
0,-216
0,-217
0,-251
0,-95
0,-219
0,-94
0,-220
0,-93
0,-221
0,-92
0,-222
0,-223
0,-91
0,-224
0,-90
0,-218
0,-99
0,-252
0,-254
0,-281
0,-282
0,-283
0,-284
0,-285
0,-286
0,-287
0,-288
0,-289
0,-290
0,-291
0,-292
0,-293
0,-294
0,-295
0,-296
0,-297
0,-298
0,-299
0,-300
0,-301
0,-302
0,-303
0,-280
0,-279
0,-278
0,-277
0,-255
0,-256
0,-257
0,-258
0,-259
0,-260
0,-261
0,-88
0,-262
0,-263
0,-264
0,-253
0,-265
0,-267
0,-268
0,-269
0,-270
0,-271
0,-272
0,-87
0,-273
0,-274
0,-275
0,-276
0,-266
0,-304
0,-209
0,-100
0,-150
0,-120
0,-151
0,-152
0,-153
0,-154
0,-155
0,-119
0,-156
0,-157
0,-158
0,-159
0,-118
0,-160
0,-161
0,-162
0,-163
0,-117
0,-164
0,-165
0,-166
0,-167
0,-116
0,-149
0,-148
0,-147
0,-146
0,-130
0,-128
0,-131
0,-132
0,-127
0,-133
0,-134
0,-126
0,-135
0,-136
0,-125
0,-168
0,-137
0,-124
0,-139
0,-140
0,-123
0,-141
0,-142
0,-122
0,-143
0,-144
0,-121
0,-145
0,-138
0,-208
0,-169
0,-171
0,-192
0,-193
0,-107
0,-194
0,-195
0,-106
0,-196
0,-197
0,-105
0,-198
0,-199
0,-104
0,-200
0,-201
0,-103
0,-202
0,-203
0,-102
0,-204
0,-205
0,-101
0,-206
0,-207
0,-108
0,-191
0,-190
0,-109
0,-172
0,-115
0,-173
0,-174
0,-175
0,-176
0,-177
0,-114
0,-178
0,-179
0,-113
0,-170
0,-180
0,-182
0,-112
0,-183
0,-184
0,-111
0,-185
0,-186
0,-187
0,-110
0,-188
0,-189
0,-181
0,-1
0,-305
0,-307
0,-73
0,-433
0,-72
0,-71
0,-70
0,-434
0,-69
0,-68
0,-67
0,-66
0,-435
0,-65
0,-64
0,-436
0,-63
0,-437
0,-62
0,-438
0,-439
0,-61
0,-440
0,-60
0,-441
0,-74
0,-75
0,-76
0,-432
0,-415
0,-416
0,-417
0,-418
0,-419
0,-420
0,-421
0,-422
0,-423
0,-424
0,-425
0,-59
0,-426
0,-428
0,-429
0,-430
0,-83
0,-82
0,-81
0,-431
0,-80
0,-79
0,-78
0,-77
0,-427
0,-414
0,-442
0,-444
0,-470
0,-471
0,-472
0,-473
0,-474
0,-475
0,-476
0,-55
0,-477
0,-478
0,-479
0,-480
0,-481
0,-482
0,-483
0,-484
0,-485
0,-486
0,-54
0,-487
0,-488
0,-489
0,-490
0,-469
0,-468
0,-467
0,-56
0,-445
0,-446
0,-447
0,-448
0,-449
0,-58
0,-450
0,-451
0,-452
0,-453
0,-454
0,-443
0,-455
0,-457
0,-57
0,-458
0,-459
0,-460
0,-461
0,-462
0,-463
0,-464
0,-465
0,-466
0,-456
0,-306
0,-413
0,-411
0,-336
0,-337
0,-338
0,-339
0,-86
0,-340
0,-341
0,-85
0,-342
0,-343
0,-344
0,-345
0,-346
0,-347
0,-348
0,-349
0,-350
0,-351
0,-352
0,-353
0,-354
0,-355
0,-356
0,-335
0,-334
0,-333
0,-332
0,-308
0,-309
0,-310
0,-311
0,-312
0,-313
0,-314
0,-315
0,-316
0,-317
0,-318
0,-357
0,-319
0,-321
0,-322
0,-323
0,-324
0,-325
0,-326
0,-327
0,-328
0,-329
0,-330
0,-331
0,-320
0,-412
0,-358
0,-360
0,-389
0,-390
0,-391
0,-392
0,-393
0,-394
0,-395
0,-396
0,-397
0,-398
0,-399
0,-400
0,-401
0,-402
0,-403
0,-84
0,-404
0,-405
0,-406
0,-407
0,-408
0,-409
0,-410
0,-388
0,-387
0,-386
0,-385
0,-361
0,-362
0,-363
0,-364
0,-365
0,-366
0,-367
0,-368
0,-369
0,-370
0,-371
0,-359
0,-372
0,-374
0,-375
0,-376
0,-377
0,-378
0,-379
0,-380
0,-381
0,-382
0,-383
0,-384
0,-373
0,-878
0,-129
0,-879
1,-336
1,-354
1,-197
1,-644
1,-718
1,-272
1,-546
1,-790
1,-818
1,-105
1,-271
1,-495
1,-545
1,-198
1,-413
1,-496
1,-719
1,-10
1,-41
1,-199
1,-270
1,-791
1,-817
1,-643
1,-355
1,-104
1,-412
1,-497
1,-269
1,-414
1,-596
1,-11
1,-494
1,-417
1,-491
1,-353
1,-715
1,-13
1,-416
1,-788
1,-547
1,-107
1,-2
1,-194
1,-820
1,-492
1,-9
1,-273
1,-716
1,-87
1,-195
1,-761
1,-415
1,-493
1,-12
1,-861
1,-106
1,-789
1,-717
1,-819
1,-196
1,-645
1,-200
1,-792
1,-816
1,-264
1,-600
1,-639
1,-407
1,-501
1,-205
1,-542
1,-722
1,-263
1,-406
1,-813
1,-101
1,-601
1,-204
1,-502
1,-638
1,-206
1,-405
1,-262
1,-88
1,-541
1,-207
1,-723
1,-602
1,-404
1,-503
1,-84
1,-812
1,-357
1,-193
1,-814
1,-408
1,-642
1,-498
1,-720
1,-201
1,-268
1,-8
1,-597
1,-411
1,-53
1,-103
1,-267
1,-544
1,-598
1,-500
1,-641
1,-202
1,-815
1,-266
1,-640
1,-203
1,-356
1,-409
1,-499
1,-721
1,-543
1,-265
1,-599
1,-102
1,-410
1,-14
1,-274
1,-821
1,-181
1,-286
1,-426
1,-828
1,-650
1,-706
1,-21
1,-482
1,-783
1,-285
1,-594
1,-112
1,-182
1,-481
1,-553
1,-425
1,-707
1,-183
1,-284
1,-483
1,-350
1,-552
1,-424
1,-184
1,-484
1,-283
1,-649
1,-708
1,-827
1,-20
1,-22
1,-349
1,-24
1,-781
1,-348
1,-478
1,-290
1,-703
1,-593
1,-114
1,-429
1,-830
1,-178
1,-479
1,-289
1,-427
1,-428
1,-651
1,-179
1,-39
1,-704
1,-288
1,-782
1,-23
1,-480
1,-705
1,-829
1,-287
1,-113
1,-180
1,-554
1,-784
1,-826
1,-111
1,-278
1,-786
1,-647
1,-712
1,-823
1,-277
1,-109
1,-488
1,-352
1,-190
1,-16
1,-419
1,-549
1,-487
1,-489
1,-191
1,-276
1,-822
1,-418
1,-15
1,-787
1,-275
1,-548
1,-108
1,-646
1,-714
1,-192
1,-490
1,-713
1,-824
1,-189
1,-420
1,-282
1,-185
1,-19
1,-423
1,-485
1,-551
1,-709
1,-186
1,-281
1,-619
1,-422
1,-486
1,-18
1,-187
1,-351
1,-280
1,-648
1,-710
1,-785
1,-550
1,-40
1,-421
1,-110
1,-279
1,-188
1,-17
1,-54
1,-595
1,-711
1,-100
1,-540
1,-637
1,-504
1,-799
1,-734
1,-380
1,-520
1,-744
1,-531
1,-93
1,-221
1,-364
1,-241
1,-379
1,-521
1,-45
1,-625
1,-7
1,-378
1,-240
1,-92
1,-222
1,-798
1,-735
1,-377
1,-223
1,-239
1,-743
1,-763
1,-522
1,-615
1,-624
1,-866
1,-242
1,-532
1,-385
1,-627
1,-732
1,-517
1,-246
1,-95
1,-533
1,-801
1,-384
1,-245
1,-218
1,-44
1,-363
1,-381
1,-383
1,-219
1,-626
1,-518
1,-733
1,-244
1,-745
1,-614
1,-94
1,-382
1,-519
1,-243
1,-800
1,-220
1,-50
1,-376
1,-797
1,-623
1,-621
1,-738
1,-227
1,-741
1,-48
1,-234
1,-528
1,-370
1,-228
1,-525
1,-618
1,-794
1,-367
1,-371
1,-620
1,-233
1,-369
1,-526
1,-739
1,-527
1,-232
1,-865
1,-368
1,-230
1,-740
1,-793
1,-3
1,-47
1,-229
1,-795
1,-235
1,-226
1,-238
1,-530
1,-864
1,-91
1,-365
1,-736
1,-375
1,-616
1,-224
1,-796
1,-374
1,-49
1,-523
1,-622
1,-879
1,-737
1,-237
1,-742
1,-90
1,-225
1,-529
1,-46
1,-366
1,-373
1,-524
1,-236
1,-372
1,-617
1,-89
1,-217
1,-177
1,-613
1,-867
1,-809
1,-634
1,-726
1,-212
1,-508
1,-359
1,-257
1,-607
1,-213
1,-398
1,-509
1,-537
1,-633
1,-399
1,-256
1,-877
1,-727
1,-608
1,-397
1,-536
1,-396
1,-255
1,-42
1,-876
1,-97
1,-52
1,-609
1,-395
1,-808
1,-510
1,-606
1,-258
1,-261
1,-208
1,-603
1,-811
1,-636
1,-724
1,-209
1,-260
1,-403
1,-505
1,-358
1,-604
1,-99
1,-98
1,-402
1,-506
1,-862
1,-210
1,-401
1,-810
1,-635
1,-725
1,-605
1,-259
1,-211
1,-538
1,-400
1,-507
1,-539
1,-254
1,-875
1,-807
1,-629
1,-249
1,-389
1,-804
1,-870
1,-96
1,-51
1,-514
1,-730
1,-747
1,-762
1,-248
1,-869
1,-43
1,-612
1,-515
1,-863
1,-628
1,-387
1,-803
1,-868
1,-216
1,-362
1,-516
1,-731
1,-247
1,-386
1,-802
1,-388
1,-390
1,-534
1,-871
1,-632
1,-360
1,-394
1,-631
1,-511
1,-253
1,-610
1,-874
1,-214
1,-806
1,-728
1,-393
1,-512
1,-252
1,-873
1,-535
1,-748
1,-392
1,-630
1,-513
1,-251
1,-805
1,-872
1,-215
1,-729
1,-611
1,-391
1,-361
1,-250
1,-746
1,-831
1,-825
1,-231
1,-673
1,-464
1,-688
1,-34
1,-339
1,-310
1,-451
1,-585
1,-569
1,-465
1,-342
1,-327
1,-842
1,-119
1,-659
1,-156
1,-309
1,-562
1,-674
1,-689
1,-32
1,-433
1,-137
1,-73
1,-36
1,-72
1,-578
1,-124
1,-462
1,-584
1,-71
1,-563
1,-153
1,-754
1,-312
1,-843
1,-155
1,-660
1,-326
1,-463
1,-672
1,-154
1,-750
1,-773
1,-452
1,-439
1,-311
1,-138
1,-687
1,-30
1,-157
1,-853
1,-766
1,-118
1,-560
1,-775
1,-160
1,-440
1,-29
1,-759
1,-859
1,-135
1,-306
1,-56
1,-676
1,-161
1,-305
1,-467
1,-76
1,-586
1,-577
1,-757
1,-60
1,-839
1,-692
1,-841
1,-75
1,-450
1,-466
1,-774
1,-308
1,-158
1,-125
1,-749
1,-328
1,-561
1,-5
1,-690
1,-64
1,-343
1,-74
1,-61
1,-159
1,-307
1,-675
1,-840
1,-136
1,-854
1,-658
1,-691
1,-769
1,-152
1,-313
1,-686
1,-664
1,-145
1,-848
1,-86
1,-455
1,-319
1,-850
1,-435
1,-66
1,-758
1,-668
1,-146
1,-752
1,-141
1,-663
1,-580
1,-318
1,-669
1,-57
1,-67
1,-323
1,-582
1,-454
1,-878
1,-142
1,-581
1,-753
1,-849
1,-436
1,-143
1,-322
1,-566
1,-65
1,-122
1,-666
1,-321
1,-771
1,-340
1,-35
1,-567
1,-665
1,-31
1,-765
1,-457
1,-121
1,-456
1,-320
1,-860
1,-144
1,-770
1,-662
1,-847
1,-751
1,-845
1,-671
1,-661
1,-453
1,-685
1,-85
1,-434
1,-69
1,-702
1,-315
1,-325
1,-314
1,-461
1,-341
1,-120
1,-151
1,-844
1,-852
1,-70
1,-62
1,-438
1,-139
1,-150
1,-579
1,-772
1,-147
1,-568
1,-458
1,-317
1,-123
1,-851
1,-68
1,-6
1,-63
1,-148
1,-583
1,-846
1,-565
1,-459
1,-684
1,-437
1,-316
1,-324
1,-149
1,-670
1,-140
1,-460
1,-564
1,-162
1,-329
1,-764
1,-468
1,-473
1,-346
1,-337
1,-557
1,-681
1,-654
1,-698
1,-170
1,-572
1,-591
1,-333
1,-447
1,-296
1,-431
1,-81
1,-131
1,-171
1,-834
1,-443
1,-38
1,-779
1,-297
1,-857
1,-169
1,-132
1,-856
1,-471
1,-448
1,-127
1,-558
1,-655
1,-80
1,-835
1,-778
1,-332
1,-298
1,-680
1,-116
1,-697
1,-168
1,-59
1,-27
1,-472
1,-442
1,-304
1,-590
1,-575
1,-699
1,-295
1,-172
1,-174
1,-130
1,-832
1,-476
1,-701
1,0
1,-292
1,-175
1,-555
1,-335
1,-25
1,-445
1,-55
1,-760
1,-858
1,-756
1,-176
1,-291
1,-430
1,-477
1,-652
1,-293
1,-683
1,-780
1,-767
1,-682
1,-574
1,-474
1,-33
1,-833
1,-82
1,-334
1,-294
1,-115
1,-128
1,-299
1,-475
1,-592
1,-653
1,-446
1,-700
1,-444
1,-173
1,-347
1,-573
1,-83
1,-556
1,-26
1,-768
1,-667
1,-117
1,-469
1,-837
1,-78
1,-855
1,-656
1,-695
1,-838
1,-677
1,-776
1,-301
1,-570
1,-133
1,-345
1,-126
1,-303
1,-777
1,-576
1,-164
1,-77
1,-134
1,-694
1,-58
1,-441
1,-28
1,-330
1,-678
1,-836
1,-432
1,-449
1,-755
1,-4
1,-129
1,-588
1,-37
1,-165
1,-302
1,-331
1,-470
1,-589
1,-166
1,-587
1,-679
1,-163
1,-79
1,-559
1,-693
1,-657
1,-344
1,-300
1,-571
1,-167
1,-338
1,-696
1,-1
2,-580
2,-797
2,-530
2,-743
2,-239
2,-241
2,-762
2,-248
2,-322
2,-534
2,-857
2,-364
2,-747
2,-323
2,-233
2,-231
2,-45
2,-858
2,-250
2,-618
2,-336
2,-240
2,-860
2,-793
2,-567
2,-798
2,-232
2,-329
2,-570
2,-43
2,-576
2,-86
2,-849
2,-804
2,-367
2,-249
2,-740
2,-7
2,-335
2,-850
2,-615
2,-577
2,-573
2,-611
2,-859
2,-361
2,-527
2,-854
2,-34
2,-794
2,-332
2,-800
2,-327
2,-236
2,-613
2,-243
2,-532
2,-569
2,-366
2,-796
2,-852
2,-246
2,-617
2,-325
2,-742
2,-614
2,-801
2,-529
2,-337
2,-44
2,-571
2,-237
2,-745
2,-616
2,-363
2,-244
2,-856
2,-326
2,-331
2,-575
2,-46
2,-754
2,-245
2,-795
2,-334
2,-855
2,-235
2,-324
2,-328
2,-528
2,-234
2,-574
2,-803
2,-864
2,-744
2,-757
2,-579
2,-338
2,-612
2,-33
2,-238
2,-863
2,-362
2,-851
2,-741
2,-32
2,-755
2,-365
2,-853
2,-531
2,-799
2,-746
2,-339
2,-572
2,-242
2,-568
2,-247
2,-333
2,-802
2,-330
2,-533
2,-578
2,-831
2,-251
2,-28
2,-548
2,-275
2,-15
2,-822
2,-837
2,-276
2,-301
2,-352
2,-16
2,-588
2,-559
2,-302
2,-277
2,-345
2,-300
2,-823
2,-278
2,-589
2,-824
2,-595
2,-836
2,-299
2,-279
2,-40
2,-558
2,-549
2,-14
2,-821
2,-274
2,-272
2,-354
2,-596
2,-29
2,-759
2,-11
2,-305
2,-819
2,-861
2,-761
2,-586
2,-12
2,-839
2,-546
2,-87
2,-304
2,-273
2,-2
2,-820
2,-587
2,-37
2,-13
2,-303
2,-353
2,-838
2,-547
2,-344
2,-17
2,-835
2,-351
2,-280
2,-21
2,-294
2,-286
2,-828
2,-349
2,-22
2,-592
2,-287
2,-347
2,-829
2,-293
2,-23
2,-288
2,-39
2,-832
2,-555
2,-554
2,-292
2,-289
2,-25
2,-830
2,-348
2,-593
2,-760
2,-291
2,-290
2,-24
2,-556
2,-560
2,-26
2,-285
2,-298
2,-550
2,-18
2,-27
2,-281
2,-825
2,-590
2,-557
2,-297
2,-19
2,-551
2,-282
2,-346
2,-826
2,-20
2,-834
2,-283
2,-296
2,-350
2,-552
2,-591
2,-284
2,-38
2,-827
2,-295
2,-594
2,-833
2,-553
2,-753
2,-818
2,-271
2,-257
2,-359
2,-537
2,-582
2,-317
2,-606
2,-565
2,-258
2,-809
2,-846
2,-538
2,-605
2,-847
2,-316
2,-862
2,-259
2,-583
2,-564
2,-358
2,-604
2,-845
2,-315
2,-260
2,-751
2,-539
2,-811
2,-810
2,-607
2,-318
2,-808
2,-805
2,-748
2,-566
2,-321
2,-252
2,-535
2,-806
2,-610
2,-31
2,-253
2,-360
2,-35
2,-320
2,-609
2,-254
2,-807
2,-581
2,-848
2,-42
2,-340
2,-255
2,-319
2,-536
2,-608
2,-752
2,-256
2,-758
2,-603
2,-85
2,-314
2,-540
2,-815
2,-585
2,-842
2,-342
2,-267
2,-544
2,-597
2,-309
2,-8
2,-841
2,-268
2,-561
2,-816
2,-308
2,-355
2,-749
2,-269
2,-9
2,-817
2,-270
2,-41
2,-307
2,-5
2,-840
2,-10
2,-343
2,-545
2,-266
2,-306
2,-598
2,-310
2,-602
2,-844
2,-812
2,-341
2,-357
2,-88
2,-313
2,-262
2,-30
2,-541
2,-601
2,-563
2,-813
2,-263
2,-843
2,-600
2,-750
2,-542
2,-264
2,-814
2,-562
2,-311
2,-599
2,-584
2,-265
2,-356
2,-36
2,-543
2,-261
2,-312
2,-619
2,-651
2,-428
2,-178
2,-114
2,-429
2,-703
2,-478
2,-179
2,-781
2,-477
2,-702
2,-176
2,-652
2,-430
2,-55
2,-175
2,-177
2,-701
2,-479
2,-782
2,-707
2,-425
2,-482
2,-182
2,-112
2,-783
2,-706
2,-704
2,-650
2,-181
2,-481
2,-705
2,-427
2,-180
2,-113
2,-480
2,-426
2,-476
2,-174
2,-780
2,-168
2,-116
2,-778
2,-80
2,-655
2,-471
2,-79
2,-697
2,-167
2,-470
2,-166
2,-777
2,-78
2,-165
2,-695
2,-656
2,-696
2,-472
2,-169
2,-473
2,-83
2,-173
2,-700
2,-653
2,-475
2,-115
2,-82
2,-474
2,-172
2,-699
2,-779
2,-171
2,-81
2,-698
2,-431
2,-170
2,-654
2,-183
2,-483
2,-424
2,-184
2,-789
2,-106
2,-493
2,-415
2,-195
2,-716
2,-645
2,-717
2,-492
2,-107
2,-788
2,-416
2,-715
2,-491
2,-193
2,-417
2,-194
2,-196
2,-414
2,-494
2,-642
2,-497
2,-104
2,-643
2,-791
2,-412
2,-199
2,-496
2,-719
2,-198
2,-495
2,-790
2,-105
2,-413
2,-718
2,-197
2,-644
2,-714
2,-4
2,-490
2,-108
2,-785
2,-710
2,-187
2,-648
2,-486
2,-422
2,-186
2,-421
2,-47
2,-185
2,-423
2,-111
2,-784
2,-708
2,-649
2,-484
2,-485
2,-110
2,-54
2,-188
2,-787
2,-646
2,-489
2,-713
2,-418
2,-191
2,-419
2,-190
2,-488
2,-109
2,-786
2,-712
2,-647
2,-487
2,-189
2,-420
2,-711
2,-192
2,-164
2,-117
2,-77
2,-437
2,-670
2,-453
2,-139
2,-671
2,-62
2,-438
2,-63
2,-138
2,-452
2,-672
2,-673
2,-451
2,-137
2,-61
2,-674
2,-124
2,-123
2,-140
2,-770
2,-121
2,-765
2,-665
2,-65
2,-666
2,-143
2,-456
2,-64
2,-142
2,-122
2,-436
2,-667
2,-455
2,-668
2,-454
2,-141
2,-669
2,-450
2,-144
2,-136
2,-769
2,-680
2,-442
2,-681
2,-447
2,-131
2,-443
2,-682
2,-59
2,-446
2,0
2,-128
2,-444
2,-683
2,-767
2,-445
2,-129
2,-130
2,-127
2,-132
2,-768
2,-439
2,-675
2,-766
2,-135
2,-676
2,-60
2,-440
2,-134
2,-126
2,-449
2,-677
2,-678
2,-441
2,-58
2,-133
2,-679
2,-448
2,-125
2,-200
2,-457
2,-664
2,-764
2,-159
2,-74
2,-690
2,-466
2,-158
2,-774
2,-658
2,-73
2,-689
2,-433
2,-156
2,-659
2,-119
2,-465
2,-464
2,-157
2,-691
2,-75
2,-118
2,-694
2,-432
2,-469
2,-776
2,-468
2,-1
2,-163
2,-693
2,-657
2,-162
2,-467
2,-76
2,-692
2,-161
2,-56
2,-775
2,-160
2,-688
2,-771
2,-72
2,-463
2,-684
2,-459
2,-68
2,-148
2,-6
2,-458
2,-147
2,-149
2,-662
2,-67
2,-57
2,-66
2,-146
2,-663
2,-435
2,-145
2,-878
2,-460
2,-772
2,-150
2,-773
2,-154
2,-687
2,-71
2,-153
2,-660
2,-462
2,-152
2,-686
2,-70
2,-461
2,-151
2,-120
2,-69
2,-434
2,-685
2,-661
2,-155
2,-792
2,-709
2,-201
2,-726
2,-763
2,-223
2,-377
2,-735
2,-398
2,-213
2,-509
2,-633
2,-222
2,-397
2,-877
2,-508
2,-92
2,-378
2,-396
2,-624
2,-52
2,-876
2,-97
2,-521
2,-379
2,-395
2,-510
2,-875
2,-632
2,-727
2,-212
2,-376
2,-634
2,-622
2,-636
2,-209
2,-724
2,-505
2,-374
2,-49
2,-224
2,-402
2,-99
2,-401
2,-635
2,-210
2,-506
2,-736
2,-375
2,-725
2,-91
2,-211
2,-400
2,-522
2,-879
2,-623
2,-507
2,-866
2,-98
2,-516
2,-221
2,-403
2,-394
2,-520
2,-629
2,-383
2,-389
2,-870
2,-96
2,-730
2,-218
2,-514
2,-384
2,-732
2,-869
2,-388
2,-50
2,-515
2,-387
2,-868
2,-756
2,-217
2,-216
2,-95
2,-517
2,-627
2,-385
2,-731
2,-386
2,-867
2,-628
2,-51
2,-626
2,-733
2,-734
2,-380
2,-631
2,-511
2,-874
2,-214
2,-625
2,-728
2,-519
2,-393
2,-873
2,-512
2,-220
2,-392
2,-381
2,-630
2,-382
2,-872
2,-215
2,-729
2,-219
2,-391
2,-513
2,-94
2,-871
2,-390
2,-518
2,-93
2,-523
2,-399
2,-639
2,-409
2,-371
2,-739
2,-226
2,-526
2,-89
2,-405
2,-638
2,-228
2,-206
2,-202
2,-502
2,-641
2,-404
2,-368
2,-865
2,-637
2,-101
2,-640
2,-406
2,-203
2,-525
2,-408
2,-500
2,-370
2,-204
2,-102
2,-407
2,-620
2,-410
2,-205
2,-48
2,-229
2,-721
2,-369
2,-499
2,-722
2,-227
2,-738
2,-501
2,-621
2,-498
2,-411
2,-225
2,-504
2,-53
2,-207
2,-84
2,-524
2,-3
2,-90
2,-723
2,-373
2,-503
2,-208
2,-372
2,-100
2,-103
2,-720
2,-737
2,-230
3,-856
3,-85
3,-858
3,-571
3,-800
3,-44
3,-342
3,-442
3,-69
3,-445
3,-433
3,-857
3,-533
3,-385
3,-47
3,-531
3,-564
3,-841
3,-525
3,-518
3,-459
3,-756
3,-845
3,-369
3,-772
3,-381
3,-434
3,-59
3,-460
3,-464
3,-465
3,-843
3,-526
3,-383
3,-71
3,-446
3,-72
3,-36
3,-793
3,-368
3,-384
3,-50
3,-562
3,-773
3,-3
3,-801
3,-563
3,-443
3,-842
3,-447
3,-367
3,-844
3,-463
3,-382
3,-767
3,-462
3,-461
3,-527
3,-572
3,-444
3,-70
3,-363
3,-341
3,-336
3,-799
3,-34
3,-519
3,-522
3,-853
3,-770
3,-757
3,-850
3,-454
3,-338
3,-439
3,-797
3,-524
3,-455
3,-339
3,-46
3,-436
3,-766
3,-849
3,-795
3,-376
3,-371
3,-567
3,-63
3,-86
3,-372
3,-451
3,-523
3,-438
3,-61
3,-374
3,-373
3,-450
3,-62
3,-569
3,-60
3,-796
3,-452
3,-568
3,-49
3,-453
3,-851
3,-437
3,-365
3,-769
3,-375
3,-529
3,-68
3,-64
3,-566
3,-379
3,-66
3,-758
3,-57
3,-58
3,-520
3,-847
3,-852
3,-370
3,-855
3,-67
3,-565
3,-448
3,-458
3,-794
3,-768
3,-846
3,-337
3,-380
3,-570
3,-364
3,-35
3,-441
3,-530
3,-456
3,-377
3,-45
3,-65
3,-765
3,-763
3,-440
3,-366
3,-854
3,-449
3,-378
3,-457
3,-798
3,-521
3,-528
3,-771
3,-340
3,-435
3,-48
3,-848
3,-516
3,-469
3,-73
3,-550
3,-403
3,-811
3,-504
3,-486
3,-421
3,-503
3,-785
3,-539
3,-84
3,-824
3,-54
3,-540
3,-420
3,-351
3,-487
3,-40
3,-823
3,-812
3,-549
3,-357
3,-786
3,-404
3,-502
3,-419
3,-422
3,-488
3,-485
3,-484
3,-809
3,-537
3,-481
3,-349
3,-400
3,-553
3,-425
3,-783
3,-506
3,-538
3,-827
3,-482
3,-810
3,-552
3,-483
3,-424
3,-826
3,-401
3,-505
3,-358
3,-423
3,-350
3,-551
3,-402
3,-784
3,-825
3,-822
3,-418
3,-405
3,-789
3,-414
3,-409
3,-494
3,-498
3,-413
3,-818
3,-354
3,-545
3,-790
3,-815
3,-495
3,-543
3,-410
3,-412
3,-817
3,-544
3,-53
3,-791
3,-41
3,-496
3,-497
3,-411
3,-355
3,-816
3,-356
3,-499
3,-819
3,-761
3,-489
3,-352
3,-548
3,-501
3,-787
3,-821
3,-406
3,-813
3,-490
3,-417
3,-541
3,-547
3,-426
3,-416
3,-820
3,-788
3,-491
3,-542
3,-500
3,-353
3,-546
3,-814
3,-492
3,-415
3,-408
3,-493
3,-407
3,-828
3,-507
3,-399
3,-389
3,-804
3,-837
3,-77
3,-792
3,-51
3,-361
3,-390
3,-513
3,-559
3,-78
3,-777
3,-4
3,-470
3,-836
3,-391
3,-345
3,-79
3,-558
3,-512
3,-471
3,-835
3,-805
3,-392
3,-534
3,-344
3,-432
3,-776
3,-838
3,-774
3,-386
3,-466
3,-560
3,-802
3,-362
3,-74
3,-840
3,-764
3,-515
3,-343
3,-762
3,-778
3,-75
3,-775
3,-56
3,-387
3,-839
3,-76
3,-388
3,-759
3,-514
3,-467
3,-43
3,-37
3,-468
3,-803
3,-561
3,-80
3,-472
3,-430
3,-396
3,-831
3,-509
3,-536
3,-477
3,-760
3,-397
3,-781
3,-808
3,-429
3,-830
3,-478
3,-428
3,-348
3,-554
3,-359
3,-398
3,-508
3,-479
3,-427
3,-829
3,-782
3,-39
3,-480
3,-55
3,-52
3,-476
3,-555
3,-535
3,-473
3,-393
3,-511
3,-834
3,-431
3,-346
3,-81
3,-806
3,-38
3,-779
3,-360
3,-557
3,-833
3,-474
3,-556
3,-82
3,-510
3,-807
3,-475
3,-395
3,-83
3,-42
3,-832
3,-780
3,-347
3,-394
3,-517
3,-532
3,-177
3,-88
3,-601
3,-112
3,-182
3,-602
3,-183
3,-707
3,-261
3,-603
3,-649
3,-260
3,-184
3,-604
3,-259
3,-708
3,-262
3,-706
3,-263
3,-650
3,-268
3,-267
3,-597
3,-651
3,-179
3,-704
3,-266
3,-862
3,-598
3,-113
3,-180
3,-599
3,-705
3,-264
3,-600
3,-181
3,-265
3,-111
3,-605
3,-185
3,-647
3,-109
3,-252
3,-712
3,-748
3,-190
3,-251
3,-610
3,-250
3,-191
3,-713
3,-249
3,-747
3,-646
3,-108
3,-192
3,-611
3,-178
3,-253
3,-711
3,-709
3,-258
3,-606
3,-186
3,-257
3,-607
3,-648
3,-189
3,-187
3,-710
3,-255
3,-608
3,-110
3,-254
3,-609
3,-188
3,-256
3,-248
3,-8
3,-114
3,-166
3,-282
3,-19
3,-655
3,-167
3,-281
3,-18
3,-280
3,-696
3,-17
3,-279
3,-595
3,-116
3,-278
3,-168
3,-283
3,-695
3,-165
3,-20
3,-288
3,-162
3,-1
3,-287
3,-22
3,-693
3,-163
3,-697
3,-286
3,-656
3,-285
3,-594
3,-694
3,-117
3,-284
3,-164
3,-21
3,-169
3,-654
3,-277
3,-174
3,-11
3,-861
3,-701
3,-272
3,-596
3,-175
3,-87
3,-652
3,-271
3,-702
3,-10
3,-730
3,-270
3,-9
3,-269
3,-176
3,-703
3,-12
3,-273
3,-16
3,-170
3,-698
3,-276
3,-171
3,-15
3,-275
3,-700
3,-699
3,-274
3,-653
3,-13
3,-115
3,-172
3,-173
3,-2
3,-14
3,-23
3,-863
3,-612
3,-91
3,-725
3,-623
3,-866
3,-98
3,-735
3,-211
3,-222
3,-634
3,-212
3,-92
3,-879
3,-726
3,-624
3,-633
3,-210
3,-635
3,-223
3,-736
3,-226
3,-89
3,-723
3,-100
3,-207
3,-621
3,-208
3,-877
3,-737
3,-225
3,-724
3,-90
3,-622
3,-99
3,-209
3,-224
3,-636
3,-221
3,-93
3,-734
3,-95
3,-873
3,-627
3,-630
3,-867
3,-872
3,-731
3,-217
3,-729
3,-868
3,-628
3,-871
3,-96
3,-629
3,-869
3,-870
3,-216
3,-637
3,-573
3,-728
3,-97
3,-625
3,-727
3,-220
3,-876
3,-213
3,-733
3,-732
3,-632
3,-94
3,-875
3,-626
3,-631
3,-218
3,-874
3,-214
3,-219
3,-714
3,-227
3,-206
3,-242
3,-744
3,-197
3,-241
3,-718
3,-7
3,-105
3,-240
3,-743
3,-198
3,-239
3,-719
3,-615
3,-238
3,-864
3,-644
3,-196
3,-717
3,-243
3,-193
3,-715
3,-247
3,-746
3,-107
3,-246
3,-613
3,-199
3,-645
3,-195
3,-245
3,-745
3,-716
3,-244
3,-614
3,-106
3,-194
3,-643
3,-104
3,-742
3,-231
3,-102
3,-619
3,-230
3,-721
3,-639
3,-204
3,-740
3,-865
3,-739
3,-722
3,-101
3,-229
3,-620
3,-205
3,-228
3,-638
3,-738
3,-232
3,-640
3,-642
3,-237
3,-616
3,-200
3,-236
3,-201
3,-720
3,-203
3,-235
3,-103
3,-234
3,-617
3,-641
3,-202
3,-233
3,-618
3,-741
3,-692
3,-215
3,-754
3,-587
3,-150
3,-304
3,-325
3,-661
3,-578
3,-586
3,-684
3,-135
3,-305
3,-675
3,-326
3,-29
3,-306
3,-674
3,-5
3,-148
3,-307
3,-6
3,-324
3,-579
3,-125
3,-136
3,-308
3,-149
3,-303
3,-685
3,-676
3,-133
3,-154
3,-299
3,-687
3,-859
3,-577
3,-589
3,-153
3,-300
3,-686
3,-678
3,-677
3,-588
3,-301
3,-126
3,-328
3,-28
3,-152
3,-660
3,-302
3,-32
3,-134
3,-327
3,-151
3,-120
3,-147
3,-679
3,-749
3,-323
3,-161
3,-139
3,-320
3,-143
3,-581
3,-666
3,-314
3,-319
3,-583
3,-315
3,-142
3,-30
3,-752
3,-751
3,-670
3,-318
3,-667
3,-316
3,-123
3,-140
3,-668
3,-669
3,-582
3,-317
3,-122
3,-313
3,-31
3,-665
3,-662
3,-137
3,-580
3,-322
3,-860
3,-309
3,-146
3,-663
3,-585
3,-310
3,-673
3,-672
3,-584
3,-311
3,-124
3,-145
3,-753
3,-750
3,-664
3,-138
3,-144
3,-121
3,-321
3,-312
3,-671
3,-878
3,-329
3,-141
3,-158
3,-755
3,-335
3,-132
3,-683
3,-691
3,-681
3,-26
3,-290
3,-159
3,-127
3,-119
3,-332
3,-130
3,-296
3,-160
3,-591
3,-292
3,-24
3,-118
3,-331
3,-291
3,-156
3,-682
3,-157
3,-33
3,-689
3,-295
3,-25
3,-128
3,-680
3,-575
3,-688
3,-593
3,-330
3,0
3,-574
3,-298
3,-129
3,-333
3,-294
3,-658
3,-27
3,-592
3,-576
3,-690
3,-155
3,-293
3,-659
3,-657
3,-289
3,-297
3,-131
3,-334
3,-590
4,-499
4,-53
4,-410
4,-103
4,-408
4,-671
4,-102
4,-511
4,-873
4,-124
4,-201
4,-512
4,-446
4,-630
4,-392
4,-728
4,-672
4,-130
4,-639
4,-202
4,-498
4,-409
4,-451
4,-438
4,-640
4,-138
4,-872
4,-726
4,-720
4,-719
4,-51
4,-412
4,-96
4,-683
4,-669
4,-123
4,-198
4,-495
4,-629
4,-389
4,-870
4,-643
4,-790
4,-718
4,-63
4,-197
4,-140
4,-105
4,-445
4,-129
4,-391
4,-437
4,-390
4,-128
4,-62
4,-411
4,-641
4,-497
4,-443
4,-200
4,-452
4,-729
4,-453
4,-871
4,-139
4,-642
4,-670
4,-682
4,-199
4,-496
4,-444
4,-791
4,-104
4,-513
4,-792
4,-638
4,-203
4,-635
4,-447
4,-509
4,-440
4,-401
4,-505
4,-396
4,-209
4,-59
4,-727
4,-52
4,-99
4,-402
4,-724
4,-134
4,-504
4,-676
4,-770
4,-60
4,-449
4,-208
4,-97
4,-876
4,-126
4,-132
4,-768
4,-508
4,-212
4,-448
4,-58
4,-633
4,-211
4,-679
4,-397
4,-133
4,-399
4,-507
4,-877
4,-441
4,-98
4,-634
4,-725
4,-400
4,-506
4,-678
4,-677
4,-210
4,-137
4,-403
4,-636
4,-394
4,-205
4,-631
4,-501
4,-131
4,-874
4,-101
4,-769
4,-136
4,-406
4,-450
4,-398
4,-673
4,-500
4,-204
4,-393
4,-407
4,-214
4,-721
4,-681
4,-61
4,-405
4,-127
4,-125
4,-510
4,-503
4,-84
4,-207
4,-766
4,-395
4,-213
4,-100
4,-632
4,-723
4,-680
4,0
4,-135
4,-675
4,-442
4,-637
4,-439
4,-404
4,-674
4,-875
4,-502
4,-206
4,-722
4,-161
4,-665
4,-494
4,-476
4,-83
4,-652
4,-154
4,-687
4,-174
4,-780
4,-773
4,-700
4,-463
4,-659
4,-173
4,-55
4,-155
4,-172
4,-72
4,-82
4,-115
4,-474
4,-688
4,-699
4,-81
4,-464
4,-473
4,-779
4,-119
4,-475
4,-462
4,-175
4,-701
4,-782
4,-704
4,-69
4,-427
4,-479
4,-179
4,-151
4,-461
4,-660
4,-178
4,-428
4,-478
4,-703
4,-70
4,-114
4,-429
4,-651
4,-152
4,-781
4,-702
4,-177
4,-477
4,-686
4,-153
4,-176
4,-71
4,-430
4,-653
4,-171
4,-698
4,-433
4,-78
4,-165
4,-764
4,-164
4,-469
4,-159
4,-77
4,-117
4,-694
4,-118
4,-656
4,-691
4,-163
4,-75
4,-776
4,-693
4,-432
4,-468
4,-1
4,-160
4,-775
4,-162
4,-467
4,-56
4,-657
4,-76
4,-692
4,-74
4,-650
4,-695
4,-4
4,-170
4,-431
4,-156
4,-169
4,-689
4,-472
4,-697
4,-80
4,-168
4,-471
4,-778
4,-157
4,-73
4,-465
4,-658
4,-116
4,-654
4,-696
4,-470
4,-79
4,-774
4,-167
4,-158
4,-655
4,-166
4,-466
4,-690
4,-777
4,-413
4,-120
4,-685
4,-417
4,-456
4,-143
4,-192
4,-65
4,-787
4,-108
4,-765
4,-489
4,-121
4,-713
4,-191
4,-714
4,-418
4,-646
4,-488
4,-190
4,-664
4,-419
4,-712
4,-786
4,-109
4,-771
4,-457
4,-435
4,-487
4,-144
4,-490
4,-193
4,-416
4,-141
4,-668
4,-717
4,-196
4,-414
4,-454
4,-493
4,-789
4,-644
4,-195
4,-667
4,-106
4,-716
4,-455
4,-436
4,-122
4,-415
4,-492
4,-194
4,-491
4,-788
4,-142
4,-666
4,-107
4,-64
4,-715
4,-645
4,-189
4,-145
4,-711
4,-663
4,-148
4,-68
4,-483
4,-661
4,-707
4,-424
4,-459
4,-183
4,-649
4,-482
4,-149
4,-182
4,-783
4,-112
4,-706
4,-684
4,-425
4,-481
4,-772
4,-181
4,-460
4,-426
4,-705
4,-434
4,-480
4,-180
4,-150
4,-184
4,-113
4,-423
4,-458
4,-188
4,-420
4,-647
4,-54
4,-110
4,-146
4,-486
4,-785
4,-710
4,-66
4,-57
4,-187
4,-421
4,-662
4,-878
4,-709
4,-186
4,-67
4,-422
4,-485
4,-648
4,-185
4,-147
4,-6
4,-484
4,-784
4,-708
4,-111
4,-756
4,-517
4,-869
4,-277
4,-16
4,-823
4,-549
4,-40
4,-595
4,-276
4,-351
4,-824
4,-279
4,-17
4,-280
4,-18
4,-281
4,-278
4,-548
4,-822
4,-15
4,-11
4,-87
4,-353
4,-12
4,-2
4,-820
4,-546
4,-273
4,-13
4,-274
4,-821
4,-547
4,-14
4,-352
4,-275
4,-825
4,-819
4,-550
4,-282
4,-288
4,-23
4,-348
4,-289
4,-593
4,-830
4,-829
4,-554
4,-290
4,-24
4,-831
4,-291
4,-292
4,-347
4,-760
4,-22
4,-287
4,-39
4,-19
4,-826
4,-551
4,-283
4,-20
4,-284
4,-594
4,-827
4,-552
4,-285
4,-349
4,-21
4,-286
4,-828
4,-553
4,-350
4,-861
4,-761
4,-272
4,-537
4,-605
4,-358
4,-604
4,-862
4,-810
4,-809
4,-538
4,-260
4,-603
4,-811
4,-539
4,-261
4,-602
4,-259
4,-258
4,-606
4,-257
4,-360
4,-806
4,-535
4,-253
4,-609
4,-42
4,-254
4,-807
4,-608
4,-255
4,-359
4,-607
4,-256
4,-808
4,-536
4,-357
4,-601
4,-812
4,-540
4,-268
4,-816
4,-544
4,-41
4,-8
4,-269
4,-9
4,-817
4,-270
4,-215
4,-354
4,-271
4,-596
4,-818
4,-545
4,-355
4,-25
4,-267
4,-597
4,-88
4,-262
4,-600
4,-813
4,-263
4,-541
4,-356
4,-264
4,-599
4,-814
4,-542
4,-265
4,-598
4,-266
4,-815
4,-543
4,-252
4,-592
4,-555
4,-566
4,-860
4,-339
4,-322
4,-580
4,-850
4,-849
4,-567
4,-86
4,-579
4,-324
4,-851
4,-578
4,-568
4,-323
4,-753
4,-321
4,-31
4,-316
4,-582
4,-846
4,-565
4,-35
4,-758
4,-317
4,-581
4,-847
4,-318
4,-752
4,-340
4,-319
4,-848
4,-320
4,-34
4,-564
4,-325
4,-326
4,-575
4,-856
4,-332
4,-571
4,-574
4,-333
4,-331
4,-334
4,-572
4,-33
4,-336
4,-335
4,-573
4,-858
4,-857
4,-337
4,-570
4,-855
4,-754
4,-327
4,-32
4,-853
4,-757
4,-328
4,-338
4,-577
4,-859
4,-854
4,-576
4,-569
4,-329
4,-330
4,-755
4,-852
4,-85
4,-751
4,-845
4,-589
4,-836
4,-558
4,-300
4,-588
4,-301
4,-299
4,-837
4,-37
4,-344
4,-302
4,-28
4,-587
4,-838
4,-559
4,-345
4,-27
4,-557
4,-293
4,-294
4,-26
4,-833
4,-38
4,-295
4,-346
4,-591
4,-296
4,-834
4,-556
4,-590
4,-297
4,-298
4,-835
4,-303
4,-759
4,-304
4,-586
4,-584
4,-311
4,-750
4,-767
4,-843
4,-562
4,-312
4,-341
4,-313
4,-30
4,-844
4,-563
4,-314
4,-583
4,-315
4,-310
4,-832
4,-36
4,-585
4,-839
4,-305
4,-29
4,-343
4,-306
4,-5
4,-840
4,-560
4,-307
4,-308
4,-749
4,-841
4,-561
4,-342
4,-309
4,-842
4,-748
4,-10
4,-368
4,-879
4,-529
4,-93
4,-520
4,-796
4,-379
4,-742
4,-221
4,-734
4,-237
4,-380
4,-365
4,-236
4,-46
4,-624
4,-378
4,-795
4,-235
4,-92
4,-741
4,-366
4,-521
4,-616
4,-864
4,-621
4,-238
4,-626
4,-744
4,-799
4,-94
4,-382
4,-242
4,-219
4,-518
4,-241
4,-7
4,-733
4,-530
4,-798
4,-240
4,-381
4,-364
4,-220
4,-743
4,-45
4,-625
4,-239
4,-797
4,-519
4,-528
4,-234
4,-794
4,-763
4,-739
4,-374
4,-224
4,-229
4,-369
4,-525
4,-622
4,-620
4,-228
4,-90
4,-373
4,-738
4,-225
4,-523
4,-370
4,-227
4,-48
4,-737
4,-226
4,-371
4,-524
4,-89
4,-372
4,-736
4,-531
4,-49
4,-526
4,-617
4,-377
4,-233
4,-222
4,-735
4,-527
4,-740
4,-232
4,-793
4,-618
4,-623
4,-376
4,-231
4,-367
4,-866
4,-230
4,-91
4,-619
4,-522
4,-3
4,-375
4,-47
4,-223
4,-865
4,-218
4,-615
4,-745
4,-514
4,-247
4,-515
4,-250
4,-245
4,-516
4,-217
4,-43
4,-868
4,-801
4,-384
4,-611
4,-361
4,-385
4,-533
4,-628
4,-95
4,-613
4,-863
4,-532
4,-627
4,-747
4,-804
4,-246
4,-249
4,-387
4,-362
4,-762
4,-244
4,-802
4,-248
4,-614
4,-243
4,-805
4,-388
4,-732
4,-800
4,-251
4,-730
4,-363
4,-50
4,-383
4,-867
4,-612
4,-731
4,-610
4,-746
4,-44
4,-216
4,-803
4,-534
4,-386
5,-522
5,-446
5,-749
5,-561
5,-662
5,-571
5,-6
5,-574
5,-575
5,-585
5,-725
5,-36
5,-584
5,-457
5,-513
5,-57
5,-570
5,-515
5,-755
5,-729
5,-506
5,-680
5,-663
5,-634
5,-578
5,-661
5,-49
5,-445
5,-682
5,-573
5,-587
5,-730
5,-685
5,-683
5,-660
5,-28
5,-523
5,-737
5,-636
5,-37
5,-559
5,-503
5,-756
5,-723
5,-33
5,-681
5,-460
5,-759
5,-29
5,-635
5,-560
5,-505
5,-5
5,-458
5,-629
5,-51
5,-736
5,-459
5,-622
5,-724
5,-628
5,-572
5,-684
5,-504
5,-514
5,-586
5,-521
5,-763
5,-735
5,-733
5,-580
5,-31
5,-671
5,-625
5,-754
5,-577
5,-565
5,-517
5,-727
5,-752
5,-670
5,-676
5,-511
5,-519
5,-453
5,-757
5,-52
5,-452
5,-509
5,-50
5,-566
5,-510
5,-626
5,-631
5,-579
5,-879
5,-673
5,-567
5,-568
5,-449
5,-675
5,-450
5,-732
5,-632
5,-672
5,-766
5,-518
5,-753
5,-451
5,-34
5,-669
5,-581
5,-677
5,-666
5,-678
5,-583
5,-563
5,-569
5,-30
5,-456
5,-507
5,-516
5,-665
5,-674
5,-731
5,-765
5,-750
5,-679
5,-447
5,-664
5,-562
5,-512
5,-448
5,-58
5,-624
5,-32
5,-758
5,-627
5,-668
5,-35
5,-728
5,-630
5,-734
5,-582
5,-454
5,-508
5,-576
5,-667
5,-564
5,-520
5,-455
5,-633
5,-751
5,-726
5,-623
5,-461
5,-534
5,-588
5,-477
5,-651
5,-8
5,-493
5,-531
5,-41
5,-614
5,-44
5,-478
5,-703
5,-543
5,-644
5,-492
5,-479
5,-597
5,-716
5,-704
5,-650
5,-598
5,-542
5,-745
5,-613
5,-480
5,-744
5,-702
5,-9
5,-544
5,-474
5,-13
5,-495
5,-12
5,-546
5,-45
5,-643
5,-718
5,-700
5,-652
5,-11
5,-599
5,-743
5,-761
5,-530
5,-476
5,-55
5,-545
5,-494
5,-596
5,-701
5,-10
5,-7
5,-717
5,-475
5,-541
5,-705
5,-491
5,-605
5,-43
5,-611
5,-606
5,-485
5,-709
5,-536
5,-713
5,-747
5,-710
5,-607
5,-533
5,-486
5,-608
5,-488
5,-647
5,-610
5,-646
5,-712
5,-609
5,-42
5,-535
5,-711
5,-748
5,-54
5,-699
5,-537
5,-648
5,-532
5,-481
5,-600
5,-715
5,-706
5,-540
5,-601
5,-649
5,-762
5,-482
5,-602
5,-489
5,-645
5,-490
5,-707
5,-746
5,-483
5,-603
5,-714
5,-538
5,-612
5,-708
5,-604
5,-484
5,-539
5,-547
5,-473
5,-14
5,-555
5,-619
5,-487
5,-764
5,-592
5,-25
5,-500
5,-739
5,-24
5,-690
5,-638
5,-525
5,-526
5,-466
5,-56
5,-691
5,-760
5,-554
5,-721
5,-657
5,-499
5,-593
5,-23
5,-618
5,-47
5,-692
5,-658
5,-465
5,-686
5,-558
5,-524
5,-462
5,-48
5,-589
5,-27
5,-687
5,-659
5,-557
5,-463
5,-689
5,-502
5,-590
5,-556
5,-464
5,-688
5,-738
5,-722
5,-620
5,-591
5,-501
5,-38
5,-26
5,-637
5,-621
5,-22
5,-639
5,-17
5,-497
5,-696
5,-654
5,-741
5,-616
5,-641
5,-471
5,-40
5,-549
5,-642
5,-470
5,-697
5,-472
5,-16
5,-496
5,-15
5,-548
5,-742
5,-698
5,-529
5,-615
5,-653
5,-719
5,-595
5,-467
5,-53
5,-550
5,-21
5,-39
5,-553
5,-693
5,-468
5,-740
5,-656
5,-498
5,-527
5,-552
5,-617
5,-46
5,-640
5,-694
5,-20
5,-551
5,-528
5,-19
5,-695
5,-720
5,-655
5,-4
5,-469
5,-18
5,-594
5,-767
5,-424
5,-809
5,-420
5,-108
5,-326
5,-1
5,-829
5,-231
5,-192
5,-162
5,-325
5,-232
5,-785
5,-421
5,-214
5,-374
5,-375
5,-324
5,-161
5,-422
5,-323
5,-233
5,-160
5,-373
5,-322
5,-784
5,-423
5,-828
5,-860
5,-349
5,-234
5,-118
5,-873
5,-419
5,-786
5,-230
5,-415
5,-227
5,-166
5,-378
5,-832
5,-331
5,-347
5,-872
5,-788
5,-416
5,-228
5,-165
5,-330
5,-377
5,-417
5,-329
5,-191
5,-327
5,-348
5,-830
5,-163
5,-865
5,-376
5,-193
5,-859
5,-418
5,-117
5,-787
5,-831
5,-229
5,-164
5,-328
5,-874
5,-235
5,-372
5,-155
5,-314
5,-825
5,-391
5,-430
5,-240
5,-876
5,-368
5,-154
5,-313
5,-241
5,-106
5,-83
5,-153
5,-195
5,-312
5,-824
5,-309
5,-120
5,-81
5,-3
5,-151
5,-97
5,-429
5,-310
5,-82
5,-196
5,-242
5,-311
5,-780
5,-351
5,-152
5,-332
5,-781
5,-315
5,-321
5,-159
5,-783
5,-425
5,-320
5,-827
5,-236
5,-107
5,-158
5,-426
5,-319
5,-237
5,-213
5,-318
5,-157
5,-371
5,-782
5,-369
5,-875
5,-119
5,-238
5,-864
5,-316
5,-239
5,-350
5,-370
5,-156
5,-826
5,-427
5,-317
5,-194
5,-428
5,-167
5,-190
5,-414
5,-398
5,-179
5,-868
5,-220
5,-399
5,-847
5,-387
5,-185
5,-178
5,-340
5,-400
5,-848
5,-838
5,-114
5,-401
5,-344
5,-186
5,-851
5,-86
5,-837
5,-176
5,-385
5,-850
5,-219
5,-403
5,-339
5,-221
5,-93
5,-402
5,-386
5,-849
5,-177
5,-84
5,-94
5,-388
5,-841
5,-182
5,-392
5,-390
5,-342
5,-842
5,-95
5,-217
5,-393
5,-112
5,-843
5,-184
5,-216
5,-394
5,-341
5,-181
5,-395
5,-839
5,-397
5,-867
5,-85
5,-389
5,-113
5,-846
5,-180
5,-343
5,-111
5,-396
5,-218
5,-840
5,-844
5,-845
5,-367
5,-187
5,-215
5,-224
5,-834
5,-189
5,-857
5,-792
5,-381
5,-170
5,-346
5,-336
5,-169
5,-96
5,-858
5,-791
5,-412
5,-380
5,-90
5,-225
5,-789
5,-333
5,-871
5,-226
5,-89
5,-334
5,-856
5,-379
5,-109
5,-790
5,-335
5,-116
5,-168
5,-833
5,-413
5,-175
5,-411
5,-171
5,-404
5,-92
5,-384
5,-405
5,-174
5,-222
5,-852
5,-836
5,-345
5,-406
5,-110
5,-853
5,-869
5,-173
5,-407
5,-338
5,-854
5,-188
5,-410
5,-223
5,-91
5,-382
5,-409
5,-337
5,-870
5,-835
5,-383
5,-408
5,-115
5,-866
5,-172
5,-855
5,-779
5,-183
5,-243
5,-435
5,-362
5,-286
5,-259
5,-802
5,-137
5,-285
5,-65
5,-815
5,-284
5,-99
5,-260
5,-803
5,-64
5,-436
5,-136
5,-125
5,-814
5,-283
5,-261
5,-356
5,-202
5,-282
5,-208
5,-63
5,-135
5,-770
5,-88
5,-281
5,-771
5,-862
5,-201
5,-287
5,-200
5,-70
5,-292
5,-69
5,-817
5,-140
5,-210
5,-123
5,-291
5,-772
5,-434
5,-256
5,-290
5,-363
5,-437
5,-289
5,-257
5,-209
5,-816
5,-801
5,-431
5,-139
5,-355
5,-288
5,-67
5,-258
5,-138
5,-103
5,-66
5,-124
5,-800
5,-262
5,-361
5,-134
5,-267
5,-204
5,-274
5,-268
5,-811
5,-206
5,-273
5,-131
5,-807
5,-768
5,-2
5,-269
5,-87
5,-59
5,-441
5,-442
5,-130
5,-128
5,-359
5,-808
5,-270
5,-443
5,-358
5,-861
5,-272
5,-271
5,-444
5,-101
5,-129
5,-205
5,-810
5,-141
5,-127
5,-60
5,-280
5,-804
5,-813
5,-126
5,-263
5,-62
5,-438
5,-279
5,-805
5,-278
5,-102
5,-264
5,-203
5,-133
5,-440
5,-812
5,-277
5,-357
5,-769
5,-439
5,-265
5,-360
5,-806
5,-276
5,-132
5,0
5,-266
5,-207
5,-275
5,-100
5,-61
5,-255
5,-68
5,-819
5,-305
5,-79
5,-796
5,-211
5,-774
5,-297
5,-822
5,-251
5,-247
5,-76
5,-98
5,-105
5,-245
5,-300
5,-149
5,-104
5,-146
5,-794
5,-775
5,-298
5,-306
5,-248
5,-74
5,-147
5,-198
5,-78
5,-352
5,-299
5,-820
5,-353
5,-197
5,-250
5,-304
5,-366
5,-75
5,-144
5,-246
5,-145
5,-777
5,-121
5,-148
5,-303
5,-797
5,-73
5,-249
5,-296
5,-433
5,-122
5,-818
5,-294
5,-878
5,-244
5,-773
5,-199
5,-253
5,-354
5,-821
5,-293
5,-432
5,-254
5,-799
5,-793
5,-71
5,-776
5,-302
5,-142
5,-863
5,-80
5,-307
5,-150
5,-77
5,-301
5,-798
5,-364
5,-877
5,-795
5,-295
5,-143
5,-778
5,-252
5,-823
5,-72
5,-212
5,-308
5,-365
6,-357
6,-726
6,-547
6,-550
6,-821
6,-633
6,-559
6,-868
6,-37
6,-344
6,-352
6,-875
6,-830
6,-100
6,-840
6,-351
6,-560
6,-216
6,-823
6,-358
6,-877
6,-537
6,-549
6,-40
6,-632
6,-97
6,-342
6,-841
6,-731
6,-825
6,-548
6,-822
6,-838
6,-539
6,-627
6,-759
6,-867
6,-876
6,-810
6,-811
6,-350
6,-206
6,-839
6,-824
6,-637
6,-538
6,-343
6,-837
6,-869
6,-812
6,-832
6,-555
6,-871
6,-39
6,-98
6,-729
6,-355
6,-214
6,-629
6,-96
6,-38
6,-873
6,-761
6,-543
6,-724
6,-553
6,-635
6,-833
6,-634
6,-545
6,-725
6,-630
6,-544
6,-760
6,-872
6,-210
6,-817
6,-209
6,-348
6,-831
6,-554
6,-816
6,-41
6,-347
6,-818
6,-728
6,-829
6,-212
6,-828
6,-815
6,-631
6,-636
6,-213
6,-354
6,-345
6,-813
6,-551
6,-557
6,-836
6,-826
6,-558
6,-207
6,-723
6,-215
6,-730
6,-540
6,-546
6,-346
6,-541
6,-835
6,-819
6,-211
6,-349
6,-99
6,-834
6,-542
6,-556
6,-820
6,-870
6,-552
6,-814
6,-353
6,-827
6,-356
6,-628
6,-208
6,-874
6,-727
6,-311
6,-95
6,-297
6,-610
6,-298
6,-250
6,-27
6,-747
6,-296
6,-589
6,-299
6,-248
6,-588
6,-300
6,-611
6,-301
6,-249
6,-302
6,-590
6,-748
6,-255
6,-292
6,-25
6,-254
6,-608
6,-592
6,-251
6,-293
6,-294
6,-609
6,-26
6,-252
6,-591
6,-295
6,-253
6,-291
6,-28
6,-746
6,-243
6,-585
6,-614
6,-309
6,-744
6,-242
6,-29
6,-584
6,-767
6,-241
6,-750
6,-7
6,-312
6,-313
6,-310
6,-863
6,-749
6,-244
6,-587
6,-247
6,-303
6,-246
6,-612
6,-586
6,-308
6,-304
6,-245
6,-613
6,-5
6,-306
6,-745
6,-307
6,-305
6,-240
6,-607
6,-256
6,-266
6,-597
6,-275
6,-15
6,-265
6,-276
6,-14
6,-598
6,-16
6,-264
6,-595
6,-599
6,-278
6,-263
6,-277
6,-279
6,-274
6,-13
6,-596
6,-271
6,-270
6,-861
6,-272
6,-11
6,-267
6,-9
6,-269
6,-12
6,-8
6,-2
6,-273
6,-268
6,-87
6,-24
6,-17
6,-280
6,-862
6,-286
6,-604
6,-287
6,-22
6,-258
6,-21
6,-288
6,-23
6,-257
6,-593
6,-606
6,-289
6,-290
6,-605
6,-600
6,-259
6,-284
6,-262
6,-18
6,-88
6,-281
6,-601
6,-282
6,-285
6,-19
6,-283
6,-602
6,-20
6,-260
6,-594
6,-603
6,-261
6,-561
6,-30
6,-583
6,-854
6,-866
6,-853
6,-757
6,-338
6,-735
6,-569
6,-852
6,-34
6,-623
6,-92
6,-568
6,-86
6,-851
6,-222
6,-567
6,-91
6,-337
6,-90
6,-858
6,-756
6,-621
6,-572
6,-857
6,-622
6,-336
6,-736
6,-571
6,-856
6,-223
6,-570
6,-855
6,-224
6,-335
6,-734
6,-221
6,-85
6,-845
6,-218
6,-563
6,-844
6,-732
6,-564
6,-562
6,-341
6,-217
6,-842
6,-36
6,-879
6,-626
6,-843
6,-850
6,-625
6,-846
6,-566
6,-849
6,-339
6,-93
6,-624
6,-565
6,-94
6,-848
6,-847
6,-340
6,-758
6,-733
6,-35
6,-219
6,-220
6,-743
6,-225
6,-737
6,-320
6,-31
6,-235
6,-741
6,-580
6,-321
6,-616
6,-234
6,-753
6,-322
6,-233
6,-617
6,-579
6,-323
6,-860
6,-740
6,-319
6,-752
6,-239
6,-314
6,-315
6,-238
6,-751
6,-615
6,-236
6,-582
6,-864
6,-317
6,-742
6,-581
6,-237
6,-318
6,-316
6,-573
6,-232
6,-324
6,-330
6,-755
6,-738
6,-575
6,-331
6,-227
6,-228
6,-226
6,-332
6,-620
6,-722
6,-334
6,-89
6,-33
6,-574
6,-578
6,-329
6,-576
6,-325
6,-231
6,-618
6,-326
6,-754
6,-230
6,-619
6,-577
6,-739
6,-32
6,-865
6,-859
6,-328
6,-229
6,-327
6,-333
6,-640
6,-205
6,-785
6,-421
6,-692
6,-161
6,-485
6,-422
6,-486
6,-160
6,-484
6,-784
6,-423
6,-691
6,-483
6,-118
6,-657
6,-424
6,-162
6,-1
6,-787
6,-489
6,-417
6,-694
6,-117
6,-488
6,-54
6,-418
6,-786
6,-656
6,-487
6,-419
6,-693
6,-420
6,-163
6,-159
6,-482
6,-690
6,-477
6,-429
6,-659
6,-476
6,-430
6,-687
6,-155
6,-154
6,-153
6,-83
6,-780
6,-686
6,-475
6,-152
6,-55
6,-781
6,-119
6,-688
6,-783
6,-158
6,-481
6,-425
6,-426
6,-157
6,-658
6,-480
6,-689
6,-782
6,-156
6,-479
6,-427
6,-478
6,-428
6,-164
6,-490
6,-165
6,-416
6,-502
6,-404
6,-174
6,-652
6,-501
6,-405
6,-175
6,-406
6,-500
6,-173
6,-407
6,-172
6,-499
6,-408
6,-700
6,-701
6,-84
6,-503
6,-399
6,-178
6,-703
6,-506
6,-400
6,-114
6,-505
6,-401
6,-651
6,-402
6,-702
6,-504
6,-177
6,-403
6,-176
6,-699
6,-82
6,-115
6,-409
6,-494
6,-413
6,-696
6,-493
6,-789
6,-414
6,-654
6,-809
6,-166
6,-415
6,-655
6,-695
6,-491
6,-788
6,-492
6,-116
6,-790
6,-168
6,-171
6,-410
6,-653
6,-53
6,-698
6,-170
6,-497
6,-792
6,-411
6,-169
6,-496
6,-791
6,-412
6,-697
6,-495
6,-498
6,-474
6,-151
6,-81
6,-436
6,-125
6,-674
6,-135
6,-454
6,-63
6,-455
6,-770
6,-453
6,-437
6,-134
6,-676
6,-452
6,-62
6,-675
6,-64
6,-136
6,-456
6,-458
6,-67
6,-138
6,-671
6,-66
6,-57
6,-124
6,-457
6,-771
6,-435
6,-672
6,-137
6,-65
6,-765
6,-673
6,-438
6,-670
6,-126
6,-677
6,-768
6,-681
6,-130
6,-447
6,-59
6,-442
6,-448
6,-128
6,-443
6,-682
6,-129
6,-445
6,-444
6,-683
6,-446
6,-131
6,-680
6,-58
6,-61
6,-133
6,-450
6,0
6,-769
6,-678
6,-439
6,-132
6,-766
6,-679
6,-449
6,-60
6,-440
6,-441
6,-127
6,-451
6,-507
6,-68
6,-459
6,-4
6,-6
6,-777
6,-661
6,-77
6,-776
6,-469
6,-146
6,-432
6,-878
6,-662
6,-467
6,-76
6,-145
6,-468
6,-147
6,-78
6,-148
6,-660
6,-473
6,-779
6,-431
6,-685
6,-120
6,-472
6,-80
6,-150
6,-471
6,-778
6,-684
6,-149
6,-470
6,-79
6,-775
6,-139
6,-75
6,-663
6,-667
6,-462
6,-71
6,-141
6,-70
6,-668
6,-773
6,-461
6,-140
6,-460
6,-772
6,-434
6,-123
6,-669
6,-69
6,-122
6,-463
6,-72
6,-144
6,-466
6,-74
6,-664
6,-764
6,-121
6,-774
6,-665
6,-465
6,-73
6,-433
6,-143
6,-464
6,-142
6,-666
6,-56
6,-179
6,-167
6,-383
6,-188
6,-531
6,-381
6,-518
6,-711
6,-380
6,-799
6,-519
6,-189
6,-199
6,-109
6,-379
6,-642
6,-530
6,-520
6,-712
6,-378
6,-798
6,-364
6,-104
6,-646
6,-763
6,-45
6,-382
6,-641
6,-363
6,-200
6,-387
6,-185
6,-762
6,-386
6,-515
6,-201
6,-186
6,-362
6,-709
6,-385
6,-516
6,-190
6,-720
6,-801
6,-187
6,-384
6,-103
6,-517
6,-110
6,-710
6,-800
6,-50
6,-44
6,-647
6,-532
6,-802
6,-377
6,-521
6,-371
6,-524
6,-366
6,-794
6,-105
6,-715
6,-48
6,-194
6,-527
6,-370
6,-369
6,-106
6,-717
6,-525
6,-793
6,-716
6,-367
6,-196
6,-368
6,-644
6,-3
6,-47
6,-526
6,-528
6,-107
6,-398
6,-372
6,-797
6,-719
6,-198
6,-191
6,-529
6,-796
6,-713
6,-365
6,-375
6,-522
6,-108
6,-376
6,-643
6,-192
6,-374
6,-714
6,-718
6,-373
6,-795
6,-645
6,-46
6,-523
6,-193
6,-197
6,-49
6,-648
6,-195
6,-638
6,-42
6,-705
6,-183
6,-52
6,-390
6,-804
6,-361
6,-112
6,-639
6,-180
6,-807
6,-509
6,-43
6,-513
6,-396
6,-512
6,-395
6,-391
6,-102
6,-510
6,-535
6,-806
6,-393
6,-706
6,-360
6,-394
6,-707
6,-511
6,-534
6,-649
6,-392
6,-182
6,-181
6,-204
6,-805
6,-203
6,-113
6,-721
6,-202
6,-388
6,-708
6,-650
6,-533
6,-508
6,-10
6,-397
6,-514
6,-536
6,-184
6,-389
6,-111
6,-51
6,-808
6,-803
6,-101
6,-704
6,-359
7,-680
7,-666
7,-643
7,-748
7,-637
7,-267
7,-212
7,-721
7,-100
7,-611
7,-247
7,-633
7,-722
7,-197
7,-122
7,-211
7,-878
7,-252
7,-205
7,-270
7,-609
7,-142
7,-131
7,-253
7,-662
7,-144
7,-268
7,-105
7,-747
7,-249
7,-663
7,-877
7,-97
7,-9
7,-269
7,-128
7,-664
7,-632
7,-610
7,-204
7,-196
7,-248
7,-717
7,-121
7,-129
7,-101
7,-665
7,-130
7,-251
7,-682
7,-718
7,-726
7,-206
7,-145
7,-681
7,-638
7,-143
7,-250
7,-8
7,-675
7,-719
7,-608
7,-263
7,-103
7,-639
7,0
7,-136
7,-599
7,-603
7,-207
7,-259
7,-677
7,-200
7,-137
7,-195
7,-672
7,-209
7,-133
7,-124
7,-673
7,-264
7,-126
7,-602
7,-201
7,-208
7,-134
7,-640
7,-600
7,-676
7,-88
7,-262
7,-135
7,-674
7,-601
7,-261
7,-720
7,-125
7,-724
7,-635
7,-202
7,-260
7,-667
7,-641
7,-604
7,-256
7,-725
7,-597
7,-634
7,-255
7,-104
7,-203
7,-99
7,-607
7,-140
7,-668
7,-679
7,-266
7,-198
7,-254
7,-141
7,-127
7,-606
7,-598
7,-669
7,-139
7,-210
7,-671
7,-862
7,-258
7,-98
7,-199
7,-636
7,-102
7,-138
7,-678
7,-723
7,-670
7,-605
7,-265
7,-257
7,-132
7,-642
7,-123
7,-179
7,-107
7,-863
7,-167
7,-648
7,-696
7,-116
7,-654
7,-879
7,-89
7,-737
7,-225
7,-867
7,-627
7,-708
7,-168
7,-697
7,-111
7,-621
7,-90
7,-224
7,-169
7,-707
7,-731
7,-736
7,-184
7,-620
7,-166
7,-226
7,-869
7,-739
7,-229
7,-710
7,-163
7,-117
7,-110
7,-865
7,-694
7,-186
7,-709
7,-655
7,-619
7,-228
7,-164
7,-730
7,-215
7,-738
7,-165
7,-227
7,-868
7,-695
7,-185
7,-170
7,-216
7,-698
7,-223
7,-175
7,-221
7,-734
7,-705
7,-176
7,-180
7,-218
7,-702
7,-651
7,-625
7,-93
7,-114
7,-624
7,-113
7,-220
7,-177
7,-94
7,-703
7,-650
7,-178
7,-704
7,-733
7,-219
7,-701
7,-693
7,-92
7,-623
7,-653
7,-183
7,-182
7,-171
7,-95
7,-115
7,-626
7,-622
7,-699
7,-91
7,-172
7,-649
7,-706
7,-173
7,-735
7,-700
7,-866
7,-222
7,-652
7,-112
7,-181
7,-174
7,-217
7,-732
7,-647
7,-230
7,-1
7,-213
7,-242
7,-660
7,-614
7,-744
7,-874
7,-151
7,-241
7,-152
7,-645
7,-7
7,-686
7,-873
7,-659
7,-714
7,-240
7,-153
7,-192
7,-743
7,-239
7,-687
7,-728
7,-154
7,-685
7,-191
7,-243
7,-613
7,-746
7,-661
7,-876
7,-6
7,-246
7,-644
7,-727
7,-716
7,-612
7,-147
7,-245
7,-875
7,-148
7,-106
7,-149
7,-194
7,-745
7,-684
7,-244
7,-715
7,-150
7,-120
7,-631
7,-193
7,-146
7,-238
7,-119
7,-118
7,-234
7,-189
7,-159
7,-729
7,-233
7,-691
7,-109
7,-617
7,-160
7,-711
7,-232
7,-740
7,-161
7,-188
7,-870
7,-231
7,-692
7,-656
7,-162
7,-628
7,-187
7,-618
7,-657
7,-630
7,-871
7,-690
7,-713
7,-108
7,-688
7,-615
7,-155
7,-658
7,-742
7,-214
7,-872
7,-156
7,-864
7,-237
7,-689
7,-190
7,-236
7,-629
7,-157
7,-96
7,-158
7,-646
7,-616
7,-235
7,-712
7,-741
7,-10
7,-767
7,-563
7,-553
7,-481
7,-827
7,-552
7,-349
7,-783
7,-826
7,-482
7,-551
7,-825
7,-550
7,-350
7,-824
7,-549
7,-823
7,-425
7,-39
7,-828
7,-348
7,-556
7,-833
7,-38
7,-479
7,-346
7,-832
7,-555
7,-40
7,-831
7,-426
7,-554
7,-347
7,-480
7,-830
7,-760
7,-829
7,-782
7,-424
7,-351
7,-683
7,-817
7,-421
7,-486
7,-816
7,-41
7,-355
7,-543
7,-544
7,-815
7,-814
7,-785
7,-542
7,-356
7,-420
7,-541
7,-813
7,-54
7,-427
7,-485
7,-545
7,-822
7,-423
7,-548
7,-483
7,-821
7,-547
7,-352
7,-354
7,-784
7,-484
7,-546
7,-819
7,-353
7,-422
7,-761
7,-818
7,-820
7,-419
7,-834
7,-557
7,-568
7,-851
7,-779
7,-81
7,-567
7,-850
7,-849
7,-566
7,-339
7,-474
7,-565
7,-82
7,-848
7,-847
7,-340
7,-473
7,-431
7,-34
7,-86
7,-336
7,-471
7,-571
7,-856
7,-855
7,-570
7,-337
7,-475
7,-778
7,-569
7,-854
7,-853
7,-757
7,-338
7,-852
7,-472
7,-80
7,-758
7,-35
7,-780
7,-560
7,-840
7,-839
7,-343
7,-759
7,-781
7,-559
7,-477
7,-838
7,-837
7,-428
7,-344
7,-478
7,-836
7,-558
7,-835
7,-37
7,-345
7,-342
7,-561
7,-846
7,-85
7,-564
7,-845
7,-83
7,-55
7,-395
7,-429
7,-844
7,-562
7,-341
7,-430
7,-842
7,-36
7,-476
7,-841
7,-843
7,-572
7,-487
7,-540
7,-375
7,-405
7,-521
7,-376
7,-501
7,-377
7,-763
7,-378
7,-520
7,-404
7,-379
7,-502
7,-403
7,-519
7,-380
7,-522
7,-500
7,-406
7,-49
7,-53
7,-369
7,-410
7,-409
7,-370
7,-48
7,-498
7,-84
7,-524
7,-408
7,-523
7,-372
7,-499
7,-373
7,-374
7,-407
7,-371
7,-503
7,-518
7,-381
7,-51
7,-507
7,-513
7,-390
7,-398
7,-512
7,-391
7,-399
7,-397
7,-392
7,-508
7,-393
7,-510
7,-396
7,-509
7,-394
7,-511
7,-525
7,-389
7,-387
7,-382
7,-383
7,-50
7,-517
7,-402
7,-504
7,-384
7,-388
7,-401
7,-385
7,-505
7,-515
7,-386
7,-400
7,-506
7,-514
7,-516
7,-812
7,-368
7,-3
7,-416
7,-490
7,-535
7,-360
7,-534
7,-805
7,-788
7,-804
7,-491
7,-361
7,-43
7,-415
7,-533
7,-803
7,-492
7,-42
7,-806
7,-807
7,-787
7,-357
7,-786
7,-539
7,-811
7,-418
7,-810
7,-488
7,-802
7,-538
7,-537
7,-809
7,-417
7,-808
7,-489
7,-536
7,-359
7,-358
7,-762
7,-362
7,-532
7,-796
7,-528
7,-365
7,-791
7,-795
7,-46
7,-496
7,-529
7,-794
7,-366
7,-411
7,-793
7,-367
7,-47
7,-497
7,-526
7,-527
7,-792
7,-495
7,-790
7,-801
7,-414
7,-800
7,-493
7,-44
7,-789
7,-531
7,-412
7,-363
7,-413
7,-494
7,-530
7,-798
7,-364
7,-797
7,-45
7,-799
7,-79
7,-52
7,-57
7,-69
7,-585
7,-460
7,-280
7,-772
7,-29
7,-60
7,-749
7,-18
7,-459
7,-308
7,-434
7,-307
7,-281
7,-306
7,-5
7,-19
7,-305
7,-439
7,-304
7,-68
7,-449
7,-586
7,-282
7,-458
7,-309
7,-766
7,-440
7,-17
7,-316
7,-72
7,-582
7,-58
7,-463
7,-751
7,-315
7,-595
7,-773
7,-314
7,-71
7,-583
7,-303
7,-277
7,-30
7,-437
7,-278
7,-312
7,-750
7,-441
7,-70
7,-279
7,-311
7,-461
7,-310
7,-584
7,-462
7,-302
7,-283
7,-587
7,-451
7,-591
7,-456
7,-64
7,-26
7,-22
7,-294
7,-455
7,-62
7,-293
7,-436
7,-287
7,-295
7,-452
7,-288
7,-592
7,-63
7,-23
7,-25
7,-291
7,-454
7,-593
7,-24
7,-770
7,-290
7,-453
7,-292
7,-16
7,-765
7,-65
7,-20
7,-67
7,-769
7,-28
7,-301
7,-457
7,-450
7,-66
7,-300
7,-588
7,-771
7,-857
7,-286
7,-61
7,-589
7,-594
7,-284
7,-435
7,-27
7,-298
7,-297
7,-285
7,-438
7,-296
7,-21
7,-590
7,-299
7,-581
7,-313
7,-2
7,-272
7,-329
7,-443
7,-467
7,-328
7,-576
7,-32
7,-859
7,-12
7,-76
7,-327
7,-317
7,-273
7,-577
7,-754
7,-75
7,-326
7,-13
7,-775
7,-56
7,-325
7,-446
7,-442
7,-274
7,-324
7,-432
7,-578
7,-468
7,-755
7,-756
7,-596
7,-858
7,-470
7,-335
7,-271
7,-573
7,-78
7,-444
7,-469
7,-861
7,-33
7,-334
7,-445
7,-4
7,-333
7,-777
7,-87
7,-11
7,-332
7,-574
7,-77
7,-776
7,-331
7,-575
7,-330
7,-447
7,-289
7,-59
7,-752
7,-275
7,-753
7,-322
7,-764
7,-320
7,-433
7,-465
7,-15
7,-580
7,-319
7,-74
7,-321
7,-276
7,-464
7,-14
7,-860
7,-466
7,-318
7,-768
7,-774
7,-448
7,-323
7,-31
7,-579
7,-73
8,-653
8,-445
8,-411
8,-403
8,-169
8,-451
8,-397
8,-502
8,-126
8,-129
8,-130
8,-127
8,-402
8,-131
8,-676
8,-176
8,-167
8,-52
8,-412
8,-651
8,-448
8,-509
8,-437
8,-62
8,0
8,-168
8,-495
8,-680
8,-452
8,-444
8,-84
8,-396
8,-175
8,-508
8,-58
8,-174
8,-59
8,-496
8,-497
8,-400
8,-128
8,-679
8,-449
8,-408
8,-399
8,-407
8,-678
8,-506
8,-114
8,-132
8,-447
8,-401
8,-499
8,-439
8,-405
8,-446
8,-172
8,-406
8,-177
8,-500
8,-681
8,-60
8,-505
8,-652
8,-498
8,-173
8,-442
8,-113
8,-438
8,-61
8,-179
8,-441
8,-53
8,-677
8,-133
8,-682
8,-410
8,-443
8,-404
8,-507
8,-409
8,-450
8,-504
8,-650
8,-501
8,-171
8,-178
8,-398
8,-115
8,-440
8,-170
8,-503
8,-148
8,-675
8,-665
8,-155
8,-478
8,-465
8,-143
8,-121
8,-428
8,-664
8,-477
8,-73
8,-119
8,-74
8,-154
8,-429
8,-476
8,-658
8,-427
8,-464
8,-142
8,-667
8,-158
8,-481
8,-462
8,-122
8,-157
8,-425
8,-466
8,-71
8,-666
8,-463
8,-426
8,-72
8,-433
8,-156
8,-479
8,-480
8,-424
8,-144
8,-56
8,-472
8,-77
8,-80
8,-120
8,-146
8,-150
8,-660
8,-469
8,-147
8,-471
8,-149
8,-78
8,-431
8,-79
8,-470
8,-473
8,-661
8,-468
8,-81
8,-430
8,-83
8,-153
8,-55
8,-659
8,-75
8,-145
8,-663
8,-152
8,-662
8,-76
8,-82
8,-474
8,-151
8,-467
8,-432
8,-475
8,-141
8,-482
8,-70
8,-64
8,-490
8,-136
8,-164
8,-416
8,-655
8,-65
8,-435
8,-489
8,-672
8,-456
8,-137
8,-163
8,-417
8,-488
8,-673
8,-455
8,-491
8,-415
8,-494
8,-453
8,-654
8,-413
8,-116
8,-454
8,-135
8,-124
8,-493
8,-674
8,-492
8,-63
8,-436
8,-166
8,-414
8,-165
8,-125
8,-57
8,-117
8,-418
8,-160
8,-434
8,-669
8,-422
8,-484
8,-459
8,-483
8,-421
8,-159
8,-668
8,-423
8,-69
8,-140
8,-657
8,-461
8,-118
8,-460
8,-134
8,-123
8,-139
8,-671
8,-487
8,-66
8,-457
8,-419
8,-138
8,-420
8,-485
8,-162
8,-670
8,-656
8,-54
8,-486
8,-458
8,-68
8,-161
8,-67
8,-596
8,-44
8,-395
8,-315
8,-582
8,-615
8,-316
8,-581
8,-317
8,-236
8,-318
8,-235
8,-319
8,-237
8,-616
8,-31
8,-580
8,-234
8,-321
8,-233
8,-322
8,-579
8,-617
8,-232
8,-323
8,-320
8,-314
8,-238
8,-313
8,-304
8,-305
8,-306
8,-244
8,-307
8,-243
8,-613
8,-29
8,-585
8,-242
8,-308
8,-309
8,-584
8,-241
8,-310
8,-614
8,-7
8,-311
8,-240
8,-312
8,-30
8,-583
8,-239
8,-578
8,-231
8,-324
8,-577
8,-621
8,-572
8,-90
8,-224
8,-336
8,-571
8,-223
8,-570
8,-337
8,-622
8,-569
8,-91
8,-338
8,-222
8,-86
8,-34
8,-568
8,-623
8,-92
8,-221
8,-567
8,-566
8,-339
8,-335
8,-245
8,-334
8,-573
8,-230
8,-325
8,-618
8,-326
8,-229
8,-327
8,-32
8,-576
8,-328
8,-619
8,-228
8,-575
8,-329
8,-227
8,-330
8,-331
8,-226
8,-574
8,-332
8,-620
8,-333
8,-89
8,-33
8,-225
8,-93
8,-612
8,-586
8,-599
8,-278
8,-262
8,-279
8,-17
8,-600
8,-280
8,-18
8,-281
8,-601
8,-277
8,-88
8,-19
8,-282
8,-602
8,-260
8,-20
8,-594
8,-259
8,-283
8,-603
8,-284
8,-261
8,-263
8,-595
8,-16
8,-270
8,-271
8,-87
8,-9
8,-269
8,-11
8,-272
8,-268
8,-8
8,-12
8,-267
8,-13
8,-273
8,-266
8,-274
8,-14
8,-597
8,-275
8,-265
8,-15
8,-276
8,-598
8,-264
8,-285
8,-21
8,-286
8,-604
8,-591
8,-295
8,-251
8,-590
8,-250
8,-296
8,-297
8,-610
8,-249
8,-27
8,-589
8,-298
8,-248
8,-299
8,-588
8,-300
8,-611
8,-247
8,-301
8,-28
8,-587
8,-302
8,-246
8,-26
8,-303
8,-252
8,-294
8,-258
8,-22
8,-287
8,-605
8,-257
8,-23
8,-593
8,-256
8,-288
8,-606
8,-289
8,-290
8,-255
8,-24
8,-607
8,-291
8,-254
8,-25
8,-592
8,-608
8,-292
8,-253
8,-293
8,-609
8,-180
8,-565
8,-220
8,-526
8,-367
8,-525
8,-368
8,-106
8,-194
8,-369
8,-644
8,-370
8,-193
8,-47
8,-48
8,-371
8,-107
8,-523
8,-372
8,-373
8,-192
8,-374
8,-191
8,-645
8,-49
8,-524
8,-195
8,-366
8,-196
8,-532
8,-362
8,-103
8,-200
8,-10
8,-531
8,-641
8,-199
8,-363
8,-530
8,-642
8,-45
8,-364
8,-104
8,-198
8,-529
8,-197
8,-528
8,-365
8,-46
8,-527
8,-643
8,-105
8,-522
8,-375
8,-521
8,-108
8,-386
8,-184
8,-514
8,-387
8,-388
8,-389
8,-648
8,-111
8,-51
8,-183
8,-513
8,-390
8,-512
8,-182
8,-391
8,-511
8,-392
8,-510
8,-112
8,-181
8,-649
8,-393
8,-394
8,-185
8,-640
8,-515
8,-516
8,-190
8,-376
8,-377
8,-520
8,-189
8,-378
8,-379
8,-646
8,-519
8,-109
8,-380
8,-518
8,-188
8,-381
8,-187
8,-382
8,-50
8,-517
8,-383
8,-110
8,-647
8,-384
8,-186
8,-385
8,-624
8,-361
8,-533
8,-628
8,-556
8,-38
8,-346
8,-555
8,-96
8,-554
8,-629
8,-347
8,-214
8,-345
8,-348
8,-553
8,-630
8,-552
8,-213
8,-349
8,-631
8,-551
8,-550
8,-350
8,-549
8,-39
8,-557
8,-558
8,-344
8,-219
8,-340
8,-85
8,-35
8,-564
8,-625
8,-94
8,-218
8,-563
8,-562
8,-217
8,-341
8,-36
8,-626
8,-561
8,-95
8,-216
8,-342
8,-560
8,-343
8,-559
8,-627
8,-215
8,-40
8,-632
8,-351
8,-548
8,-539
8,-100
8,-206
8,-357
8,-538
8,-637
8,-205
8,-537
8,-358
8,-536
8,-101
8,-204
8,-359
8,-638
8,-42
8,-203
8,-535
8,-534
8,-360
8,-102
8,-639
8,-202
8,-43
8,-540
8,-201
8,-636
8,-207
8,-97
8,-547
8,-212
8,-352
8,-211
8,-546
8,-633
8,-353
8,-545
8,-544
8,-98
8,-210
8,-634
8,-354
8,-209
8,-41
8,-543
8,-635
8,-355
8,-542
8,-99
8,-208
8,-541
8,-356
8,-683
8,-37
8,-852
8,-808
8,-807
8,-740
8,-766
8,-825
8,-756
8,-741
8,-826
8,-806
8,-755
8,-777
8,-762
8,-742
8,-765
8,-754
8,-778
8,-779
8,-757
8,-743
8,-824
8,-767
8,-688
8,-687
8,-737
8,-846
8,-776
8,-686
8,-872
8,-685
8,-768
8,-845
8,-684
8,-6
8,-738
8,-758
8,-810
8,-823
8,-809
8,-739
8,-859
8,-844
8,-871
8,-4
8,-840
8,-839
8,-749
8,-763
8,-2
8,-838
8,-798
8,-5
8,-837
8,-797
8,-796
8,-836
8,-781
8,-835
8,-795
8,-860
8,-799
8,-843
8,-864
8,-800
8,-805
8,-780
8,-804
8,-803
8,-753
8,-870
8,-802
8,-801
8,-827
8,-752
8,-869
8,-868
8,-751
8,-750
8,-867
8,-764
8,-842
8,-841
8,-782
8,-689
8,-690
8,-746
8,-761
8,-726
8,-715
8,-818
8,-714
8,-877
8,-713
8,-727
8,-712
8,-772
8,-711
8,-876
8,-710
8,-728
8,-709
8,-819
8,-760
8,-708
8,-716
8,-717
8,-721
8,-817
8,-774
8,-816
8,-722
8,-851
8,-720
8,-815
8,-850
8,-723
8,-814
8,-849
8,-775
8,-724
8,-719
8,-718
8,-725
8,-773
8,-847
8,-875
8,-707
8,-821
8,-697
8,-822
8,-873
8,-734
8,-770
8,-696
8,-695
8,-735
8,-694
8,-811
8,-693
8,-692
8,-691
8,-736
8,-848
8,-769
8,-698
8,-729
8,-812
8,-733
8,-874
8,-820
8,-706
8,-879
8,-730
8,-705
8,-704
8,-759
8,-731
8,-703
8,-771
8,-702
8,-732
8,-701
8,-813
8,-700
8,-862
8,-699
8,-794
8,-863
8,-784
8,-786
8,-858
8,-832
8,-790
8,-3
8,-855
8,-745
8,-857
8,-783
8,-878
8,-831
8,-856
8,-833
8,-787
8,-828
8,-747
8,-744
8,-866
8,-830
8,-792
8,-854
8,-788
8,-1
8,-829
8,-748
8,-793
8,-861
8,-834
8,-853
8,-865
8,-791
8,-785
8,-789
9,-194
9,-118
9,-734
9,-167
9,-330
9,-226
9,-193
9,-862
9,-811
9,-106
9,-159
9,-537
9,-437
9,-623
9,-258
9,-161
9,-770
9,-732
9,-538
9,-260
9,-116
9,-495
9,-65
9,-356
9,-162
9,-625
9,-259
9,-483
9,-228
9,-733
9,-227
9,-812
9,-64
9,-318
9,-386
9,-482
9,-497
9,-436
9,-138
9,-195
9,-624
9,-63
9,-735
9,-607
9,-160
9,-496
9,-158
9,-477
9,-107
9,-384
9,-440
9,-606
9,-737
9,-810
9,-109
9,-872
9,-768
9,-168
9,-153
9,-139
9,-499
9,-188
9,-152
9,-187
9,-327
9,-59
9,-151
9,-500
9,-383
9,-620
9,-441
9,-120
9,-110
9,-536
9,-224
9,-150
9,-189
9,-368
9,-154
9,-257
9,-357
9,-157
9,-62
9,-192
9,-329
9,-435
9,-328
9,-385
9,-438
9,-53
9,-622
9,-191
9,-61
9,-89
9,-156
9,-498
9,-736
9,-108
9,-769
9,-155
9,-439
9,-296
9,-119
9,-225
9,-859
9,-190
9,-60
9,-621
9,-196
9,-539
9,-626
9,-635
9,-611
9,-231
9,-724
9,-288
9,-198
9,-548
9,-71
9,-547
9,-634
9,-747
9,-725
9,-546
9,-164
9,-392
9,-391
9,-745
9,-633
9,-97
9,-163
9,-292
9,-726
9,-613
9,-877
9,-491
9,-372
9,-70
9,-393
9,-390
9,-40
9,-773
9,-489
9,-721
9,-488
9,-550
9,-638
9,-816
9,-73
9,-612
9,-433
9,-487
9,-722
9,-297
9,-637
9,-232
9,-549
9,-394
9,-815
9,-486
9,-355
9,-371
9,-104
9,-54
9,-636
9,-723
9,-814
9,-490
9,-72
9,-813
9,-1
9,-545
9,-761
9,-729
9,-874
9,-541
9,-373
9,-233
9,-230
9,-213
9,-485
9,-628
9,-540
9,-494
9,-484
9,-730
9,-67
9,-229
9,-105
9,-261
9,-627
9,-738
9,-66
9,-865
9,-608
9,-731
9,-873
9,-117
9,-771
9,-166
9,-614
9,-632
9,-879
9,-629
9,-610
9,-598
9,-727
9,-370
9,-69
9,-772
9,-876
9,-631
9,-389
9,-748
9,-434
9,-544
9,-492
9,-609
9,-41
9,-68
9,-630
9,-369
9,-728
9,-543
9,-493
9,-165
9,-388
9,-289
9,-744
9,-875
9,-387
9,-542
9,-256
9,-443
9,-442
9,-764
9,-466
9,-523
9,-241
9,-375
9,-177
9,-800
9,-56
9,-601
9,-240
9,-792
9,-239
9,-467
9,-142
9,-604
9,-238
9,-237
9,-468
9,-799
9,-864
9,-793
9,-49
9,-52
9,-4
9,-294
9,-363
9,-469
9,-216
9,-465
9,-242
9,-867
9,-179
9,-525
9,-802
9,-121
9,-801
9,-508
9,-143
9,-869
9,-113
9,-362
9,-221
9,-509
9,-868
9,-172
9,-93
9,-215
9,-244
9,-460
9,-48
9,-461
9,-243
9,-462
9,-178
9,-524
9,-376
9,-463
9,-464
9,-367
9,-459
9,-507
9,-220
9,-521
9,-474
9,-217
9,-174
9,-218
9,-475
9,-480
9,-513
9,-511
9,-603
9,-235
9,-374
9,-365
9,-325
9,-324
9,-795
9,-479
9,-323
9,-322
9,-478
9,-860
9,-512
9,-321
9,-94
9,-293
9,-55
9,-476
9,-794
9,-51
9,-366
9,-173
9,-796
9,-114
9,-510
9,-470
9,-763
9,-520
9,-219
9,-519
9,-176
9,-481
9,-471
9,-518
9,-50
9,-602
9,-522
9,-798
9,-234
9,-517
9,-472
9,-516
9,-319
9,-515
9,-514
9,-797
9,-364
9,-473
9,-236
9,-95
9,-175
9,-122
9,-3
9,-870
9,-115
9,-253
9,-379
9,-740
9,-359
9,-378
9,-184
9,-58
9,-140
9,-42
9,-111
9,-326
9,-766
9,-878
9,-223
9,-449
9,-91
9,-252
9,-617
9,-450
9,-183
9,-535
9,-251
9,-451
9,-806
9,-170
9,-741
9,-145
9,-807
9,-618
9,-448
9,-380
9,-123
9,-290
9,-186
9,-382
9,-320
9,-185
9,-444
9,-809
9,-599
9,-619
9,-169
9,-255
9,-149
9,-534
9,-767
9,-90
9,-739
9,-358
9,-445
9,-381
9,-446
9,-808
9,-147
9,-214
9,-254
9,-447
9,-501
9,-146
9,-148
9,-361
9,-502
9,-452
9,-246
9,-181
9,-528
9,-457
9,-743
9,-46
9,-245
9,-458
9,-96
9,-605
9,-7
9,-527
9,-180
9,-805
9,-871
9,-222
9,-505
9,-526
9,-506
9,-360
9,-600
9,-295
9,-804
9,-92
9,-47
9,-171
9,-803
9,-57
9,-112
9,-529
9,-742
9,-43
9,-249
9,-453
9,-454
9,-182
9,-377
9,-503
9,-533
9,-616
9,-455
9,-762
9,-248
9,-765
9,-250
9,-866
9,-532
9,-44
9,-141
9,-247
9,-504
9,-287
9,-144
9,-863
9,-531
9,-530
9,-45
9,-291
9,-615
9,-456
9,-395
9,-197
9,-278
9,-276
9,-584
9,-675
9,-208
9,-750
9,-30
9,-583
9,-674
9,-277
9,-751
9,-582
9,-581
9,-827
9,-585
9,-752
9,-31
9,-580
9,-11
9,-672
9,-753
9,-311
9,-83
9,-780
9,-341
9,-842
9,-199
9,-671
9,-843
9,-673
9,-349
9,-12
9,-676
9,-586
9,-5
9,-344
9,-306
9,-837
9,-680
9,-265
9,-13
9,-87
9,-272
9,-307
9,-679
9,-2
9,-29
9,-343
9,-273
9,-678
9,-839
9,-308
9,-309
9,-274
9,-342
9,-840
9,-677
9,-841
9,-310
9,-275
9,-749
9,-838
9,-681
9,-312
9,-279
9,-574
9,-825
9,-33
9,-666
9,-573
9,-756
9,-572
9,-571
9,-665
9,-350
9,-9
9,-570
9,-203
9,-755
9,-569
9,-99
9,-757
9,-824
9,-34
9,-663
9,-568
9,-823
9,-567
9,-8
9,-566
9,-662
9,-209
9,-565
9,-664
9,-82
9,-667
9,-826
9,-579
9,-81
9,-578
9,-779
9,-204
9,-264
9,-280
9,-596
9,-670
9,-402
9,-80
9,-577
9,-778
9,-575
9,-431
9,-754
9,-669
9,-79
9,-401
9,-10
9,-78
9,-32
9,-777
9,-668
9,-282
9,-299
9,-400
9,-576
9,-281
9,-351
9,-836
9,-430
9,-404
9,-405
9,-23
9,-332
9,-406
9,-130
9,-593
9,-407
9,-408
9,-17
9,-409
9,-24
9,-331
9,-348
9,-131
9,-410
9,-127
9,-828
9,-791
9,-411
9,-300
9,-790
9,-412
9,-25
9,-413
9,-789
9,-414
9,-132
9,-206
9,-592
9,-403
9,-333
9,-338
9,-852
9,-830
9,-853
9,-302
9,-337
9,-854
9,-347
9,-855
9,-336
9,-856
9,-857
9,-831
9,-84
9,-335
9,-18
9,-829
9,-301
9,-19
9,-20
9,-334
9,-594
9,-129
9,-21
9,-101
9,-128
9,-205
9,-22
9,-858
9,-305
9,-26
9,-415
9,-588
9,-270
9,-783
9,-425
9,-136
9,-15
9,-833
9,-269
9,-834
9,-426
9,-304
9,-268
9,-137
9,-424
9,-345
9,-28
9,-124
9,-683
9,-427
9,-587
9,-267
9,-428
9,-14
9,-781
9,-682
9,-429
9,-835
9,-266
9,-782
9,-788
9,-207
9,-784
9,-416
9,-591
9,-133
9,-787
9,-100
9,-126
9,-417
9,-861
9,-590
9,-418
9,-595
9,-786
9,-419
9,-423
9,-16
9,-420
9,-134
9,-303
9,0
9,-785
9,-271
9,-346
9,-421
9,-135
9,-27
9,-125
9,-422
9,-589
9,-832
9,-210
9,-746
9,-707
9,-642
9,-339
9,-651
9,-711
9,-656
9,-848
9,-817
9,-399
9,-553
9,-719
9,-98
9,-102
9,-76
9,-694
9,-352
9,-283
9,-693
9,-556
9,-692
9,-262
9,-689
9,-847
9,-690
9,-316
9,-647
9,-286
9,-353
9,-35
9,-710
9,-849
9,-657
9,-653
9,-691
9,-702
9,-315
9,-560
9,-396
9,-718
9,-703
9,-701
9,-39
9,-202
9,-654
9,-699
9,-554
9,-562
9,-715
9,-398
9,-818
9,-822
9,-713
9,-714
9,-298
9,-645
9,-698
9,-211
9,-555
9,-697
9,-75
9,-212
9,-644
9,-643
9,-700
9,-655
9,-775
9,-646
9,-564
9,-695
9,-717
9,-38
9,-652
9,-563
9,-696
9,-760
9,-712
9,-716
9,-36
9,-201
9,-561
9,-658
9,-88
9,-821
9,-704
9,-285
9,-709
9,-844
9,-432
9,-263
9,-774
9,-684
9,-200
9,-649
9,-819
9,-708
9,-851
9,-85
9,-686
9,-820
9,-103
9,-313
9,-705
9,-640
9,-397
9,-776
9,-648
9,-86
9,-597
9,-660
9,-685
9,-845
9,-37
9,-659
9,-720
9,-557
9,-77
9,-661
9,-559
9,-846
9,-284
9,-340
9,-641
9,-706
9,-639
9,-688
9,-650
9,-354
9,-74
9,-558
9,-552
9,-759
9,-850
9,-6
9,-314
9,-758
9,-551
9,-317
9,-687
10,-555
10,-505
10,-866
10,-304
10,-605
10,-222
10,-598
10,-503
10,-541
10,-761
10,-819
10,-170
10,-504
10,-794
10,-94
10,-874
10,-831
10,-345
10,-16
10,-28
10,-200
10,-38
10,-172
10,-876
10,-595
10,-15
10,-27
10,-543
10,-556
10,-366
10,-604
10,-589
10,-818
10,-219
10,-792
10,-510
10,-588
10,-52
10,-41
10,-207
10,-875
10,-557
10,-506
10,-93
10,-544
10,-542
10,-793
10,-171
10,-92
10,-115
10,-511
10,-303
10,-220
10,-346
10,-833
10,-507
10,-597
10,-508
10,-221
10,-98
10,-832
10,-173
10,-509
10,-353
10,-186
10,-91
10,-748
10,-492
10,-369
10,-609
10,-20
10,-594
10,-850
10,-165
10,-493
10,-21
10,-230
10,-19
10,-101
10,-229
10,-316
10,-355
10,-494
10,-22
10,-205
10,-814
10,-828
10,-608
10,-849
10,-166
10,-104
10,-549
10,-815
10,-610
10,-338
10,-550
10,-489
10,-231
10,-354
10,-371
10,-347
10,-297
10,-551
10,-816
10,-611
10,-877
10,-490
10,-830
10,-302
10,-747
10,-552
10,-164
10,-86
10,-829
10,-851
10,-292
10,-370
10,-18
10,-491
10,-865
10,-502
10,-116
10,-813
10,-212
10,-512
10,-25
10,-168
10,-827
10,-499
10,-3
10,-197
10,-224
10,-500
10,-592
10,-606
10,-97
10,-169
10,-367
10,-591
10,-90
10,-554
10,-501
10,-100
10,-211
10,-223
10,-545
10,-590
10,-26
10,-225
10,-546
10,-498
10,-495
10,-23
10,-228
10,-315
10,-593
10,-496
10,-227
10,-40
10,-497
10,-17
10,-607
10,-226
10,-548
10,-24
10,-553
10,-198
10,-167
10,-368
10,-39
10,-53
10,-206
10,-300
10,-547
10,-89
10,-817
10,-348
10,-760
10,-797
10,-558
10,-528
10,-112
10,-596
10,-349
10,-529
10,-45
10,-577
10,-191
10,-530
10,-339
10,-296
10,-531
10,-44
10,-35
10,-754
10,-299
10,-10
10,-108
10,-532
10,-847
10,-762
10,-32
10,-190
10,-758
10,-846
10,-357
10,-181
10,-204
10,-192
10,-341
10,-47
10,-804
10,-564
10,-600
10,-179
10,-360
10,-842
10,-295
10,-193
10,-870
10,-753
10,-182
10,-526
10,-102
10,-843
10,-180
10,-805
10,-527
10,-579
10,-351
10,-107
10,-96
10,-46
10,-578
10,-848
10,-311
10,-533
10,-576
10,-810
10,-569
10,-807
10,-187
10,-99
10,-845
10,-535
10,-757
10,-214
10,-34
10,-568
10,-808
10,-358
10,-350
10,-536
10,-844
10,-567
10,-8
10,-566
10,-599
10,-312
10,-209
10,-185
10,-809
10,-822
10,-565
10,-110
10,-823
10,-803
10,-313
10,-203
10,-43
10,-575
10,-189
10,-534
10,-755
10,-574
10,-340
10,-825
10,-314
10,-33
10,-573
10,-183
10,-871
10,-85
10,-111
10,-572
10,-756
10,-824
10,-571
10,-109
10,-184
10,-806
10,-570
10,-359
10,-9
10,-188
10,-42
10,-537
10,-563
10,-361
10,-515
10,-516
10,-837
10,-13
10,-873
10,-602
10,-50
10,-306
10,-517
10,-559
10,-352
10,-196
10,-514
10,-176
10,-519
10,-520
10,-763
10,-343
10,-538
10,-114
10,-560
10,-838
10,-521
10,-307
10,-522
10,-798
10,-518
10,-363
10,-836
10,-344
10,-293
10,-365
10,-37
10,-14
10,-603
10,-540
10,-834
10,-759
10,-513
10,-218
10,-103
10,-217
10,-210
10,-835
10,-213
10,-795
10,-51
10,-305
10,-796
10,-364
10,-105
10,-175
10,-586
10,-95
10,-5
10,-539
10,-174
10,-587
10,-839
10,-49
10,-30
10,-178
10,-583
10,-298
10,-524
10,-48
10,-582
10,-215
10,-751
10,-581
10,-562
10,-868
10,-821
10,-113
10,-752
10,-869
10,-580
10,-202
10,-801
10,-31
10,-872
10,-802
10,-11
10,-194
10,-525
10,-826
10,-106
10,-308
10,-750
10,-867
10,-561
10,-342
10,-356
10,-820
10,-840
10,-799
10,-309
10,-294
10,-841
10,-36
10,-601
10,-812
10,-195
10,-310
10,-177
10,-800
10,-29
10,-12
10,-523
10,-362
10,-201
10,-585
10,-216
10,-584
10,-811
10,-208
10,-749
10,-199
10,-301
10,-696
10,-718
10,-643
10,-717
10,-459
10,-244
10,-460
10,-243
10,-461
10,-462
10,-291
10,-376
10,-463
10,-464
10,-242
10,-465
10,-764
10,-466
10,-375
10,-241
10,-374
10,-716
10,-56
10,-240
10,-239
10,-467
10,-238
10,-237
10,-468
10,-864
10,-719
10,-644
10,-642
10,-396
10,-724
10,-743
10,-457
10,-245
10,-458
10,-7
10,-635
10,-393
10,-773
10,-72
10,-723
10,-636
10,-722
10,-637
10,-394
10,-433
10,-73
10,-638
10,-287
10,-721
10,-639
10,-640
10,-720
10,-774
10,-395
10,-74
10,-641
10,-286
10,-88
10,-262
10,-715
10,-714
10,-4
10,-76
10,-699
10,-698
10,-653
10,-697
10,-474
10,-398
10,-728
10,-654
10,-283
10,-695
10,-694
10,-655
10,-693
10,-692
10,-656
10,-475
10,-235
10,-691
10,-690
10,-657
10,-324
10,-399
10,-323
10,-689
10,-688
10,-322
10,-321
10,-658
10,-652
10,-700
10,-701
10,-473
10,-469
10,-470
10,-645
10,-75
10,-713
10,-712
10,-471
10,-646
10,-711
10,-710
10,-647
10,-285
10,-709
10,-708
10,-122
10,-648
10,-397
10,-472
10,-236
10,-775
10,-707
10,-706
10,-649
10,-284
10,-705
10,-704
10,-650
10,-703
10,-702
10,-651
10,-330
10,-860
10,-288
10,-57
10,-734
10,-258
10,-138
10,-329
10,-862
10,-623
10,-437
10,-727
10,-746
10,-735
10,-69
10,-632
10,-62
10,-390
10,-385
10,-328
10,-622
10,-438
10,-61
10,-736
10,-769
10,-439
10,-257
10,-859
10,-60
10,-621
10,-384
10,-737
10,-440
10,-770
10,-383
10,-624
10,-436
10,-387
10,-630
10,-629
10,-388
10,-729
10,-68
10,-434
10,-389
10,-631
10,-628
10,-772
10,-67
10,-730
10,-261
10,-627
10,-289
10,-66
10,-731
10,-771
10,-626
10,-260
10,-435
10,-732
10,-65
10,-259
10,-625
10,-64
10,-733
10,-386
10,-63
10,-768
10,-139
10,-59
10,-252
10,-617
10,-450
10,-251
10,-140
10,-451
10,-250
10,-452
10,-249
10,-453
10,-454
10,-377
10,-616
10,-741
10,-455
10,-248
10,-765
10,-456
10,-247
10,-141
10,-325
10,-863
10,-391
10,-725
10,-615
10,-742
10,-634
10,-71
10,-392
10,-449
10,-326
10,-766
10,-58
10,-70
10,-327
10,-620
10,-441
10,-256
10,-738
10,-442
10,-123
10,-382
10,-726
10,-443
10,-255
10,-444
10,-290
10,-246
10,-619
10,-739
10,-445
10,-381
10,-446
10,-254
10,-447
10,-380
10,-618
10,-448
10,-253
10,-379
10,-740
10,-378
10,-633
10,-767
10,-432
10,-879
10,-55
10,-861
10,-151
10,-418
10,-786
10,-152
10,-419
10,-273
10,-785
10,-134
10,-150
10,-153
10,-271
10,-154
10,-135
10,0
10,-421
10,-125
10,-2
10,-119
10,-679
10,-420
10,-678
10,-120
10,-417
10,-275
10,-677
10,-790
10,-412
10,-413
10,-274
10,-145
10,-789
10,-132
10,-414
10,-878
10,-146
10,-788
10,-147
10,-415
10,-148
10,-416
10,-787
10,-133
10,-126
10,-149
10,-784
10,-411
10,-155
10,-156
10,-137
10,-124
10,-683
10,-159
10,-1
10,-427
10,-267
10,-428
10,-781
10,-268
10,-682
10,-430
10,-160
10,-266
10,-161
10,-429
10,-481
10,-318
10,-317
10,-482
10,-681
10,-118
10,-426
10,-782
10,-87
10,-157
10,-744
10,-265
10,-422
10,-423
10,-687
10,-783
10,-424
10,-614
10,-233
10,-485
10,-373
10,-680
10,-484
10,-270
10,-136
10,-158
10,-425
10,-117
10,-269
10,-272
10,-483
10,-791
10,-127
10,-486
10,-662
10,-77
10,-232
10,-336
10,-142
10,-856
10,-663
10,-664
10,-487
10,-665
10,-667
10,-282
10,-400
10,-668
10,-143
10,-777
10,-78
10,-401
10,-79
10,-666
10,-612
10,-855
10,-854
10,-476
10,-320
10,-477
10,-478
10,-479
10,-480
10,-234
10,-319
10,-686
10,-659
10,-263
10,-685
10,-660
10,-776
10,-684
10,-6
10,-661
10,-852
10,-488
10,-853
10,-337
10,-281
10,-372
10,-121
10,-431
10,-405
10,-780
10,-332
10,-83
10,-745
10,-130
10,-406
10,-407
10,-672
10,-408
10,-404
10,-673
10,-613
10,-277
10,-674
10,-276
10,-675
10,-144
10,-676
10,-331
10,-131
10,-410
10,-409
10,-669
10,-162
10,-84
10,-778
10,-80
10,-670
10,-402
10,-280
10,-264
10,-857
10,-779
10,-81
10,-403
10,-54
10,-279
10,-82
10,-278
10,-858
10,-334
10,-671
10,-163
10,-129
10,-128
10,-333
10,-335
11,0
11,-1
11,-879
11,-878
11,-4
11,-877
11,-5
11,-2
11,-3
11,-6
11,-7
12,-3
12,-7
12,-878
12,-879
12,-6
12,-5
12,-4
12,-1
12,-2
12,0
12,-877
13,-3
13,-7
13,-1
13,-4
13,-877
13,-5
13,0
13,-878
13,-879
13,-6
13,-2
14,-4
14,-878
14,-877
14,-3
14,-879
14,0
14,-2
14,-7
14,-5
14,-1
14,-6
15,-2
15,-6
15,-878
15,-877
15,-4
15,-1
15,-5
15,-7
15,-3
15,-879
15,0
16,-5
16,-7
16,-6
16,-2
16,-877
16,-1
16,-3
16,-879
16,-4
16,0
16,-878
17,-5
17,-878
17,-7
17,-2
17,-6
17,-3
17,0
17,-4
17,-879
17,-1
17,-877
18,-877
18,-6
18,-4
18,-7
18,-878
18,-5
18,-2
18,-3
18,0
18,-879
18,-1
19,-878
19,0
19,-5
19,-3
19,-7
19,-6
19,-4
19,-877
19,-2
19,-1
19,-879
20,-4
20,0
20,-5
20,-2
20,-3
20,-879
20,-6
20,-7
20,-877
20,-878
20,-1
21,-6
21,-877
21,-2
21,-879
21,-5
21,-878
21,-3
21,-1
21,0
21,-7
21,-4
22,-7
22,-878
22,-6
22,-2
22,-5
22,-879
22,-3
22,0
22,-4
22,-877
22,-1
23,-879
23,-7
23,-878
23,-877
23,-3
23,0
23,-2
23,-4
23,-5
23,-1
23,-6
24,-4
24,-2
24,-3
24,-879
24,-878
24,-7
24,-5
24,-877
24,0
24,-1
24,-6
25,-6
25,-2
25,0
25,-3
25,-5
25,-4
25,-878
25,-879
25,-7
25,-1
25,-877
26,-1
26,-3
26,-879
26,-4
26,-2
26,-7
26,-5
26,-877
26,-878
26,0
26,-6
27,-877
27,-4
27,-6
27,-879
27,-5
27,-1
27,0
27,-2
27,-878
27,-7
27,-3
28,-1
28,-2
28,-7
28,-3
28,-878
28,-877
28,-879
28,-6
28,-5
28,-4
28,0
29,0
29,-2
29,-878
29,-4
29,-1
29,-879
29,-877
29,-7
29,-5
29,-6
29,-3
30,-6
30,-5
30,-7
30,-3
30,-1
30,-879
30,-877
30,-2
30,0
30,-4
30,-878
31,-7
31,-6
31,-3
31,-878
31,-2
31,0
31,-879
31,-1
31,-4
31,-5
31,-877
32,-1
32,-878
32,-6
32,-7
32,-5
32,-877
32,-2
32,-4
32,-879
32,0
32,-3
33,-877
33,-2
33,-879
33,0
33,-878
33,-6
33,-4
33,-5
33,-7
33,-1
33,-3
34,-5
34,0
34,-879
34,-877
34,-2
34,-7
34,-1
34,-4
34,-878
34,-3
34,-6
35,-3
35,0
35,-1
35,-5
35,-879
35,-4
35,-878
35,-7
35,-2
35,-6
35,-877
36,-6
36,-2
36,-877
36,-1
36,-3
36,-878
36,0
36,-7
36,-5
36,-4
36,-879
37,-4
37,-2
37,-5
37,0
37,-6
37,-3
37,-877
37,-1
37,-7
37,-879
37,-878
38,-1
38,-2
38,-3
38,-7
38,-4
38,-5
38,-877
38,-878
38,-879
38,-6
38,0
39,-7
39,-6
39,-2
39,-879
39,-1
39,-4
39,-877
39,-5
39,0
39,-3
39,-878
40,-879
40,-878
40,-4
40,-6
40,-3
40,-7
40,-2
40,-5
40,0
40,-877
40,-1
41,-2
41,-877
41,-3
41,-6
41,-878
41,0
41,-7
41,-879
41,-1
41,-4
41,-5
42,0
42,-877
42,-3
42,-7
42,-5
42,-879
42,-4
42,-2
42,-6
42,-878
42,-1
43,-879
43,-7
43,-6
43,-3
43,-878
43,-1
43,-4
43,-2
43,0
43,-5
43,-877
44,-877
44,-6
44,-4
44,-2
44,-5
44,-7
44,-879
44,-878
44,-3
44,-1
44,0
45,-2
45,-5
45,-879
45,-4
45,-878
45,-6
45,-1
45,0
45,-3
45,-877
45,-7
46,-877
46,-5
46,-4
46,-6
46,-7
46,-878
46,-3
46,-1
46,0
46,-2
46,-879
47,-3
47,-2
47,-5
47,-1
47,-7
47,-4
47,-6
47,-878
47,-877
47,0
47,-879
48,-84
48,-1
48,-5
48,-2
48,0
48,-3
48,-87
48,-6
48,-4
48,-877
48,-7
48,-878
48,-879
49,-86
49,-861
49,-5
49,-877
49,-4
49,-6
49,-84
49,-862
49,-2
49,-83
49,-878
49,0
49,-88
49,-879
49,-7
49,-1
49,-3
49,-87
50,-87
50,-101
50,-6
50,-83
50,-91
50,-859
50,-84
50,-2
50,-878
50,-860
50,-879
50,-863
50,-861
50,-877
50,-3
50,-4
50,-86
50,-67
50,-865
50,-49
50,-77
50,-862
50,-864
50,-5
50,-1
50,-7
50,0
50,-88
51,-74
51,-56
51,-94
51,-71
51,-55
51,-49
51,-879
51,-57
51,-3
51,-88
51,-87
51,0
51,-95
51,-5
51,-53
51,-76
51,-50
51,-4
51,-51
51,-98
51,-75
51,-86
51,-72
51,-96
51,-100
51,-1
51,-91
51,-73
51,-7
51,-77
51,-69
51,-858
51,-84
51,-83
51,-2
51,-101
51,-54
51,-70
51,-58
51,-52
51,-866
51,-93
51,-97
51,-99
51,-878
51,-877
51,-68
51,-92
51,-67
51,-6
52,-877
52,-4
52,-878
52,-101
52,-88
52,-92
52,-87
52,-84
52,-3
52,-858
52,-2
52,0
52,-5
52,-86
52,-879
52,-6
52,-1
52,-7
52,-91
52,-67
52,-77
52,-49
52,-83
52,-72
53,-864
53,-865
53,-67
53,-6
53,-92
53,-84
53,-1
53,-862
53,-77
53,-7
53,-88
53,-5
53,-878
53,-4
53,-879
53,-863
53,-86
53,-860
53,-859
53,-83
53,-72
53,0
53,-861
53,-2
53,-101
53,-87
53,-91
53,-3
53,-877
54,-77
54,-67
54,-878
54,-7
54,-5
54,-863
54,-879
54,-6
54,-86
54,-83
54,-87
54,-1
54,-861
54,-877
54,-72
54,-4
54,-84
54,-88
54,-101
54,-3
54,-2
54,0
54,-862
54,-92
55,-5
55,-72
55,-101
55,-86
55,-3
55,-84
55,-88
55,-67
55,-7
55,-4
55,-1
55,-92
55,-2
55,-83
55,0
55,-77
55,-87
55,-49
55,-879
55,-6
55,-878
55,-877
56,-53
56,-51
56,-4
56,-54
56,-83
56,-87
56,-58
56,-52
56,-100
56,-86
56,-55
56,-57
56,-5
56,-2
56,-7
56,0
56,-67
56,-56
56,-49
56,-6
56,-77
56,-878
56,-50
56,-879
56,-101
56,-3
56,-877
56,-88
56,-92
56,-84
56,-1
57,-866
57,-93
57,0
57,-99
57,-86
57,-877
57,-92
57,-83
57,-84
57,-6
57,-2
57,-878
57,-4
57,-879
57,-88
57,-87
57,-1
57,-76
57,-5
57,-3
57,-49
57,-865
57,-94
57,-7
57,-100
58,-3
58,-87
58,-96
58,-93
58,-88
58,-97
58,-1
58,-98
58,-99
58,-2
58,-878
58,-879
58,-5
58,-84
58,-83
58,-49
58,-4
58,-6
58,-94
58,-877
58,-7
58,-86
58,0
58,-95
59,-77
59,-49
59,-98
59,-97
59,-87
59,-2
59,-862
59,-88
59,-5
59,-83
59,-4
59,-3
59,-877
59,-863
59,-70
59,-84
59,-95
59,-96
59,-6
59,-7
59,0
59,-878
59,-879
59,-1
59,-86
60,-101
60,-7
60,-878
60,-2
60,-86
60,-861
60,-83
60,-77
60,-862
60,-70
60,-6
60,-71
60,-76
60,-877
60,-864
60,-4
60,-49
60,-95
60,0
60,-87
60,-879
60,-1
60,-865
60,-88
60,-84
60,-860
60,-3
60,-5
61,-2
61,-879
61,-74
61,-5
61,-6
61,-87
61,-100
61,-861
61,-75
61,-877
61,-83
61,-84
61,-73
61,-95
61,0
61,-92
61,-866
61,-91
61,-49
61,-1
61,-96
61,-3
61,-88
61,-4
61,-101
61,-878
61,-86
61,-97
61,-859
61,-98
61,-70
61,-72
61,-99
61,-7
61,-58
61,-50
62,-877
62,0
62,-51
62,-1
62,-879
62,-4
62,-88
62,-5
62,-84
62,-86
62,-878
62,-57
62,-87
62,-3
62,-83
62,-7
62,-56
62,-101
62,-2
62,-6
62,-74
62,-50
62,-73
63,-3
63,-52
63,-6
63,-863
63,-4
63,-5
63,-77
63,-763
63,-877
63,0
63,-865
63,-84
63,-879
63,-55
63,-7
63,-878
63,-597
63,-71
63,-53
63,-75
63,-70
63,-56
63,-87
63,-76
63,-864
63,-1
63,-83
63,-51
63,-86
63,-2
63,-54
63,-862
63,-858
63,-88
64,-877
64,-597
64,-70
64,0
64,-5
64,-83
64,-53
64,-2
64,-264
64,-99
64,-1
64,-762
64,-6
64,-54
64,-101
64,-430
64,-596
64,-96
64,-87
64,-76
64,-878
64,-100
64,-86
64,-88
64,-84
64,-4
64,-3
64,-7
64,-763
64,-429
64,-55
64,-52
64,-863
64,-263
64,-879
64,-77
65,-83
65,-762
65,-430
65,-879
65,-84
65,-5
65,-4
65,-1
65,-429
65,-87
65,0
65,-2
65,-77
65,-88
65,-6
65,-263
65,-98
65,-95
65,-597
65,-7
65,-86
65,-878
65,-877
65,-596
65,-101
65,-3
65,-763
65,-264
66,0
66,-86
66,-4
66,-430
66,-429
66,-878
66,-858
66,-596
66,-263
66,-84
66,-88
66,-763
66,-87
66,-101
66,-762
66,-2
66,-264
66,-7
66,-879
66,-877
66,-3
66,-5
66,-6
66,-83
66,-1
66,-597
67,-87
67,-264
67,-96
67,-430
67,-75
67,-879
67,-72
67,-596
67,-878
67,-100
67,-97
67,-76
67,-3
67,-4
67,-83
67,-597
67,-6
67,-263
67,-5
67,-7
67,-88
67,-877
67,-86
67,-2
67,0
67,-762
67,-95
67,-429
67,-858
67,-865
67,-84
67,-1
67,-763
68,-411
68,-400
68,-721
68,-417
68,-572
68,-725
68,-221
68,-257
68,-222
68,-6
68,-586
68,-242
68,-555
68,-756
68,-862
68,-416
68,-736
68,-585
68,-243
68,-749
68,-86
68,-261
68,-244
68,-245
68,-584
68,-554
68,-573
68,-77
68,-763
68,-7
68,-556
68,-418
68,-401
68,-2
68,-758
68,-224
68,-593
68,-731
68,-264
68,-420
68,-588
68,-421
68,-240
68,-239
68,-225
68,-422
68,-879
68,-84
68,-3
68,-402
68,-722
68,-597
68,-408
68,-570
68,-98
68,-587
68,-99
68,-561
68,-409
68,-223
68,-419
68,-557
68,-569
68,-241
68,-394
68,-726
68,-564
68,-737
68,-88
68,-238
68,-255
68,-720
68,-579
68,-251
68,-553
68,-753
68,-562
68,-575
68,-250
68,-878
68,-388
68,-563
68,-755
68,-249
68,-397
68,-752
68,-410
68,-252
68,-754
68,-254
68,-596
68,-412
68,-389
68,-577
68,-740
68,-739
68,-74
68,-396
68,-719
68,-262
68,-578
68,-395
68,-576
68,-580
68,-248
68,-741
68,-399
68,-246
68,-414
68,-583
68,-220
68,-742
68,-858
68,-390
68,-263
68,-406
68,-863
68,-415
68,-730
68,-760
68,-750
68,-247
68,-761
68,-582
68,-738
68,-101
68,-76
68,-256
68,-574
68,-97
68,-581
68,-728
68,-727
68,-398
68,-407
68,-387
68,-413
68,-751
68,-729
68,-743
68,-877
68,-571
68,-228
68,-425
68,-594
68,-567
68,-100
68,-392
68,-734
68,-568
68,-405
68,-559
68,-236
68,-430
68,-747
68,-558
68,-231
68,-723
68,-595
68,-258
68,-592
68,-735
68,-404
68,-757
68,-87
68,-227
68,-4
68,-565
68,-229
68,-260
68,-230
68,-428
68,-724
68,-5
68,-427
68,-235
68,-386
68,-733
68,-96
68,-393
68,-391
68,-591
68,-590
68,-759
68,-748
68,-426
68,-566
68,-259
68,-429
68,-589
68,-762
68,-732
68,-744
68,-233
68,-1
68,-232
68,-253
68,-424
68,0
68,-403
68,-226
68,-745
68,-83
68,-423
68,-234
68,-71
68,-237
68,-746
68,-560
69,-750
69,-247
69,-748
69,-761
69,-577
69,-729
69,-582
69,-591
69,-4
69,-413
69,-232
69,-398
69,-739
69,-751
69,-596
69,-429
69,-576
69,-230
69,-742
69,-220
69,-390
69,-395
69,-5
69,-858
69,-565
69,-754
69,-414
69,-724
69,-406
69,-254
69,-391
69,-399
69,-246
69,-562
69,-229
69,-392
69,-759
69,-263
69,-745
69,-583
69,-231
69,-740
69,-387
69,-233
69,-727
69,-578
69,-250
69,-397
69,-560
69,-738
69,-878
69,-732
69,-575
69,-430
69,-553
69,-252
69,-259
69,-746
69,-251
69,-579
69,-720
69,-566
69,-753
69,-255
69,-389
69,-592
69,-559
69,0
69,-249
69,-407
69,-84
69,-234
69,-87
69,-581
69,-744
69,-574
69,-386
69,-396
69,-567
69,-563
69,-101
69,-719
69,-410
69,-747
69,-741
69,-580
69,-262
69,-248
69,-755
69,-760
69,-752
69,-859
69,-256
69,-728
69,-225
69,-88
69,-877
69,-569
69,-223
69,-394
69,-734
69,-236
69,-595
69,-587
69,-418
69,-879
69,-723
69,-570
69,-258
69,-597
69,-556
69,-401
69,-558
69,-568
69,-725
69,-571
69,-860
69,-555
69,-586
69,-6
69,-733
69,-222
69,-226
69,-241
69,-757
69,-419
69,-83
69,-722
69,-422
69,-238
69,-70
69,-1
69,-411
69,-861
69,-239
69,-240
69,-421
69,-264
69,-589
69,-588
69,-242
69,-762
69,-405
69,-423
69,-593
69,-408
69,-224
69,-412
69,-420
69,-424
69,-3
69,-758
69,-402
69,-557
69,-2
69,-735
69,-257
69,-736
69,-561
69,-393
69,-73
69,-235
69,-749
69,-594
69,-86
69,-243
69,-388
69,-261
69,-564
69,-260
69,-244
69,-590
69,-743
69,-427
69,-554
69,-573
69,-77
69,-428
69,-415
69,-763
69,-237
69,-245
69,-228
69,-404
69,-737
69,-584
69,-585
69,-253
69,-409
69,-400
69,-572
69,-221
69,-731
69,-426
69,-403
69,-416
69,-425
69,-7
69,-721
69,-756
69,-227
69,-726
69,-417
69,-730
70,-879
70,-87
70,-386
70,-84
70,-719
70,-385
70,-6
70,-554
70,-70
70,-5
70,0
70,-720
70,-877
70,-88
70,-4
70,-553
70,-7
70,-86
70,-83
70,-2
70,-3
70,-73
70,-858
70,-878
70,-1
70,-76
70,-220
71,-88
71,-720
71,-72
71,-74
71,-560
71,-554
71,-73
71,-386
71,-553
71,-758
71,-71
71,-7
71,-75
71,-648
71,-76
71,-877
71,-83
71,-220
71,0
71,-879
71,-77
71,-670
71,-3
71,-86
71,-2
71,-87
71,-6
71,-450
71,-878
71,-1
71,-719
71,-4
71,-84
71,-5
72,-6
72,-86
72,-5
72,-878
72,-83
72,-3
72,-554
72,-96
72,-102
72,-97
72,-77
72,-103
72,-220
72,-1
72,-879
72,-88
72,-386
72,-877
72,-553
72,-4
72,-720
72,-7
72,0
72,-98
72,-87
72,-385
72,-101
72,-719
72,-100
72,-2
72,-84
72,-104
73,-385
73,-386
73,-5
73,-98
73,-878
73,-3
73,-220
73,-87
73,-7
73,-2
73,-86
73,-58
73,-554
73,-99
73,0
73,-84
73,-1
73,-720
73,-719
73,-877
73,-83
73,-553
73,-4
73,-53
73,-95
73,-104
73,-101
73,-863
73,-88
73,-879
73,-6
73,-52
74,-4
74,-720
74,-3
74,-385
74,-99
74,0
74,-84
74,-104
74,-2
74,-6
74,-877
74,-878
74,-386
74,-86
74,-879
74,-719
74,-863
74,-87
74,-220
74,-553
74,-7
74,-101
74,-554
74,-1
74,-5
74,-83
74,-88
75,-99
75,-877
75,-386
75,-2
75,-83
75,-6
75,-4
75,-719
75,-5
75,-1
75,-87
75,-95
75,-3
75,-879
75,-88
75,-101
75,-77
75,-554
75,-220
75,-720
75,-86
75,-7
75,-104
75,-553
75,-84
75,-878
75,0
75,-385
75,-71
76,-386
76,-76
76,-878
76,-720
76,-74
76,-101
76,-5
76,-95
76,-96
76,-87
76,-719
76,-877
76,-97
76,-75
76,-83
76,-104
76,-863
76,-553
76,-1
76,-3
76,-385
76,-2
76,0
76,-71
76,-70
76,-86
76,-220
76,-7
76,-73
76,-77
76,-88
76,-98
76,-72
76,-879
76,-4
76,-84
76,-554
76,-6
77,-560
77,-230
77,-748
77,-747
77,-222
77,-228
77,-562
77,-95
77,-387
77,-728
77,-729
77,-261
77,-763
77,-561
77,-220
77,-221
77,-229
77,-746
77,-223
77,-1
77,-386
77,-224
77,-225
77,-226
77,-260
77,-227
77,-403
77,-731
77,-730
77,-231
77,-253
77,-232
77,-554
77,-242
77,-243
77,-405
77,-244
77,-743
77,-245
77,-737
77,-742
77,-246
77,-406
77,-761
77,-256
77,-247
77,-553
77,-760
77,-741
77,-248
77,-249
77,-250
77,-740
77,-255
77,-251
77,-252
77,-738
77,-407
77,-878
77,-254
77,-739
77,-736
77,-745
77,-86
77,-7
77,-744
77,-233
77,-259
77,-559
77,-234
77,-4
77,-732
77,-759
77,-404
77,-235
77,-733
77,-258
77,-558
77,-236
77,-734
77,-385
77,-762
77,-237
77,-238
77,-239
77,-240
77,-557
77,-241
77,-597
77,-556
77,-3
77,-735
77,0
77,-555
77,-257
77,-388
77,-412
77,-401
77,-568
77,-264
77,-593
77,-752
77,-571
77,-393
77,-588
77,-420
77,-580
77,-877
77,-392
77,-402
77,-590
77,-567
77,-6
77,-576
77,-581
77,-419
77,-411
77,-587
77,-719
77,-418
77,-71
77,-2
77,-591
77,-751
77,-724
77,-566
77,-409
77,-397
77,-426
77,-262
77,-578
77,-425
77,-595
77,-596
77,-570
77,-594
77,-394
77,-396
77,-424
77,-754
77,-395
77,-753
77,-423
77,-579
77,-83
77,-427
77,-589
77,-422
77,-722
77,-757
77,-428
77,-429
77,-421
77,-723
77,-569
77,-398
77,-577
77,-582
77,-758
77,-87
77,-585
77,-564
77,-102
77,-263
77,-583
77,-414
77,-101
77,-390
77,-726
77,-749
77,-572
77,-574
77,-410
77,-84
77,-88
77,-5
77,-720
77,-584
77,-563
77,-389
77,-727
77,-573
77,-413
77,-77
77,-879
77,-415
77,-750
77,-721
77,-391
77,-592
77,-417
77,-756
77,-565
77,-575
77,-725
77,-586
77,-400
77,-416
77,-408
77,-399
77,-755
78,-760
78,-252
78,-738
78,-590
78,-595
78,-430
78,-411
78,-253
78,-719
78,-404
78,-407
78,-255
78,-553
78,-409
78,-575
78,-234
78,-755
78,-596
78,-877
78,-83
78,-591
78,-403
78,-574
78,-878
78,-739
78,-235
78,-754
78,-395
78,-4
78,-576
78,-254
78,-233
78,-744
78,-264
78,-236
78,-398
78,-582
78,-2
78,-761
78,-7
78,0
78,-586
78,-246
78,-86
78,-263
78,-3
78,-400
78,-242
78,-388
78,-879
78,-585
78,-750
78,-742
78,-583
78,-399
78,-749
78,-243
78,-245
78,-410
78,-584
78,-743
78,-405
78,-751
78,-577
78,-406
78,-401
78,-578
78,-262
78,-753
78,-251
78,-579
78,-762
78,-589
78,-594
78,-396
78,-740
78,-237
78,-250
78,-238
78,-397
78,-239
78,-249
78,-752
78,-248
78,-588
78,-580
78,-402
78,-741
78,-240
78,-6
78,-241
78,-581
78,-587
78,-247
78,-5
78,-244
78,-256
78,-565
78,-421
78,-757
78,-734
78,-225
78,-422
78,-557
78,-731
78,-569
78,-423
78,-725
78,-221
78,-416
78,-394
78,-570
78,-220
78,-597
78,-226
78,-556
78,-425
78,-260
78,-559
78,-426
78,-227
78,-424
78,-415
78,-722
78,-560
78,-223
78,-71
78,-222
78,-259
78,-732
78,-417
78,-1
78,-567
78,-419
78,-759
78,-566
78,-723
78,-392
78,-420
78,-393
78,-733
78,-724
78,-593
78,-258
78,-224
78,-391
78,-558
78,-573
78,-568
78,-408
78,-427
78,-418
78,-428
78,-88
78,-84
78,-730
78,-756
78,-389
78,-746
78,-592
78,-736
78,-726
78,-745
78,-387
78,-729
78,-413
78,-721
78,-572
78,-231
78,-563
78,-727
78,-87
78,-232
78,-720
78,-562
78,-737
78,-412
78,-554
78,-230
78,-728
78,-390
78,-758
78,-564
78,-561
78,-763
78,-228
78,-386
78,-257
78,-261
78,-748
78,-555
78,-571
78,-414
78,-429
78,-735
78,-747
78,-229
79,-585
79,-586
79,-417
79,-7
79,-412
79,-400
79,-222
79,-77
79,-3
79,-763
79,-263
79,0
79,-866
79,-413
79,-414
79,-221
79,-749
79,-2
79,-86
79,-416
79,-84
79,-243
79,-415
79,-238
79,-418
79,-404
79,-428
79,-228
79,-235
79,-429
79,-590
79,-229
79,-748
79,-877
79,-747
79,-411
79,-230
79,-592
79,-746
79,-591
79,-745
79,-430
79,-4
79,-403
79,-234
79,-231
79,-744
79,-87
79,-233
79,-232
79,-405
79,-5
79,-83
79,-427
79,-865
79,-227
79,-587
79,-241
79,-223
79,-1
79,-6
79,-240
79,-419
79,-402
79,-588
79,-593
79,-224
79,-264
79,-239
79,-401
79,-420
79,-237
79,-421
79,-595
79,-225
79,-422
79,-762
79,-423
79,-589
79,-236
79,-424
79,-226
79,-425
79,-426
79,-594
79,-388
79,-242
79,-743
79,-760
79,-244
79,-574
79,-755
79,-573
79,-256
79,-720
79,-581
79,-572
79,-554
79,-736
79,-756
79,-737
79,-88
79,-247
79,-555
79,-257
79,-735
79,-751
79,-407
79,-406
79,-582
79,-579
79,-761
79,-597
79,-394
79,-571
79,-556
79,-596
79,-575
79,-251
79,-753
79,-262
79,-740
79,-578
79,-577
79,-250
79,-396
79,-397
79,-252
79,-739
79,-754
79,-255
79,-395
79,-859
79,-249
79,-752
79,-248
79,-576
79,-254
79,-878
79,-738
79,-409
79,-580
79,-719
79,-741
79,-253
79,-570
79,-398
79,-569
79,-560
79,-721
79,-731
79,-390
79,-879
79,-70
79,-260
79,-730
79,-725
79,-758
79,-561
79,-750
79,-742
79,-391
79,-564
79,-399
79,-261
79,-729
79,-245
79,-410
79,-389
79,-728
79,-726
79,-563
79,-387
79,-727
79,-584
79,-562
79,-583
79,-724
79,-565
79,-566
79,-557
79,-408
79,-734
79,-757
79,-246
79,-722
79,-568
79,-558
79,-258
79,-393
79,-733
79,-392
79,-759
79,-723
79,-732
79,-259
79,-559
79,-71
79,-567
80,-866
80,-72
80,-5
80,-597
80,-4
80,-878
80,-865
80,-430
80,-87
80,-83
80,-429
80,-73
80,-71
80,-763
80,-858
80,-74
80,-1
80,-88
80,-877
80,-84
80,-75
80,-596
80,-76
80,-77
80,-264
80,-3
80,0
80,-263
80,-7
80,-6
80,-86
80,-879
80,-2
81,0
81,-863
81,-73
81,-87
81,-74
81,-2
81,-72
81,-6
81,-865
81,-101
81,-7
81,-430
81,-877
81,-88
81,-429
81,-597
81,-878
81,-84
81,-5
81,-3
81,-866
81,-596
81,-75
81,-858
81,-95
81,-263
81,-762
81,-77
81,-1
81,-763
81,-86
81,-76
81,-96
81,-879
81,-264
81,-83
81,-4
82,-87
82,-5
82,-862
82,-763
82,-97
82,-596
82,-314
82,-696
82,-866
82,-2
82,-71
82,-1
82,-263
82,-86
82,-98
82,-879
82,-429
82,-861
82,-99
82,-877
82,-101
82,-266
82,-597
82,-865
82,-88
82,-7
82,0
82,-758
82,-3
82,-430
82,-859
82,-670
82,-6
82,-83
82,-95
82,-264
82,-96
82,-860
82,-762
82,-4
82,-84
82,-77
82,-727
82,-100
82,-878
83,-77
83,-71
83,-87
83,-6
83,-1
83,-429
83,-264
83,-86
83,-83
83,-263
83,0
83,-430
83,-7
83,-3
83,-84
83,-101
83,-2
83,-597
83,-865
83,-4
83,-878
83,-763
83,-877
83,-879
83,-5
83,-88
83,-95
83,-70
84,-83
84,-95
84,-877
84,0
84,-879
84,-7
84,-74
84,-88
84,-72
84,-86
84,-73
84,-75
84,-76
84,-5
84,-3
84,-84
84,-4
84,-1
84,-71
84,-87
84,-77
84,-2
84,-6
84,-878
85,-50
85,-75
85,-96
85,-99
85,-83
85,-101
85,-3
85,-74
85,-98
85,-49
85,-72
85,-53
85,-1
85,-6
85,0
85,-877
85,-2
85,-58
85,-77
85,-878
85,-76
85,-7
85,-57
85,-100
85,-879
85,-52
85,-86
85,-51
85,-97
85,-88
85,-84
85,-87
85,-95
85,-5
85,-55
85,-56
85,-73
85,-4
85,-54
86,-95
86,-101
86,-54
86,-878
86,-58
86,-84
86,-5
86,-3
86,-98
86,-1
86,-57
86,-6
86,-86
86,-96
86,-87
86,-4
86,-55
86,-99
86,-866
86,-83
86,-2
86,-56
86,-77
86,-51
86,-88
86,-97
86,-50
86,-53
86,-861
86,-7
86,-879
86,-52
86,-877
86,-100
86,-860
86,-49
86,0
87,-7
87,-1
87,-83
87,-866
87,-5
87,-2
87,-6
87,-88
87,-861
87,-879
87,-3
87,-878
87,-84
87,-858
87,-87
87,0
87,-101
87,-86
87,-877
87,-4
88,-877
88,-84
88,-2
88,-77
88,-6
88,-86
88,-879
88,-83
88,-4
88,-7
88,-5
88,-862
88,-76
88,-87
88,-878
88,-865
88,-861
88,-88
88,-1
88,-858
88,0
88,-3
89,-1
89,-3
89,-97
89,-879
89,-100
89,-7
89,-84
89,-4
89,-858
89,-98
89,-86
89,-863
89,-83
89,-5
89,-862
89,0
89,-99
89,-2
89,-87
89,-96
89,-878
89,-6
89,-88
89,-877
90,-879
90,-6
90,-84
90,-3
90,-88
90,-83
90,-56
90,-7
90,-2
90,-54
90,-1
90,-87
90,-53
90,-878
90,-55
90,-4
90,-57
90,-100
90,0
90,-877
90,-101
90,-95
90,-5
90,-86
91,-53
91,-54
91,-7
91,-56
91,-6
91,-52
91,-858
91,-1
91,-83
91,-101
91,-4
91,-877
91,-88
91,-5
91,-3
91,-84
91,-2
91,0
91,-67
91,-58
91,-77
91,-86
91,-57
91,-87
91,-55
91,-879
91,-51
91,-878
92,-86
92,-5
92,-69
92,-67
92,-877
92,-68
92,-83
92,0
92,-84
92,-864
92,-863
92,-71
92,-51
92,-53
92,-70
92,-7
92,-862
92,-878
92,-861
92,-72
92,-2
92,-3
92,-76
92,-101
92,-74
92,-6
92,-73
92,-87
92,-88
92,-879
92,-866
92,-58
92,-75
92,-1
92,-50
92,-859
92,-77
92,-4
92,-860
92,-858
92,-865
93,-865
93,-76
93,-670
93,-84
93,-77
93,-49
93,-67
93,-68
93,-101
93,-2
93,-877
93,-74
93,-86
93,-72
93,-864
93,-860
93,-1
93,-4
93,-83
93,-95
93,-75
93,-71
93,-88
93,-6
93,-96
93,-7
93,-73
93,-69
93,-879
93,-861
93,-560
93,-70
93,-863
93,-862
93,-878
93,-450
93,-859
93,-3
93,-858
93,-87
93,-5
93,0
93,-50
94,-879
94,-429
94,-877
94,-97
94,-100
94,-858
94,-3
94,-7
94,-83
94,-2
94,-862
94,-49
94,-96
94,-84
94,-5
94,-86
94,0
94,-595
94,-53
94,-67
94,-99
94,-88
94,-878
94,-77
94,-98
94,-87
94,-4
94,-1
94,-6
94,-72
95,-54
95,-266
95,-879
95,-595
95,-88
95,-86
95,-4
95,-760
95,-761
95,-83
95,-6
95,-594
95,-1
95,-877
95,-55
95,-5
95,-72
95,-862
95,-73
95,0
95,-58
95,-56
95,-67
95,-3
95,-429
95,-2
95,-265
95,-49
95,-87
95,-84
95,-53
95,-57
95,-7
95,-878
96,-429
96,-74
96,-73
96,-596
96,-68
96,-877
96,-55
96,-878
96,-7
96,-3
96,-84
96,-266
96,-583
96,-72
96,-5
96,-1
96,-87
96,-6
96,-265
96,-416
96,-4
96,-595
96,-259
96,-428
96,-858
96,-88
96,-862
96,-762
96,-879
96,-56
96,-426
96,-86
96,-760
96,-2
96,-594
96,-83
96,-57
96,0
96,-761
96,-71
96,-264
97,-751
97,-75
97,-753
97,-586
97,-865
97,-592
97,-253
97,-3
97,-76
97,-427
97,-756
97,-878
97,-585
97,-263
97,-752
97,-6
97,-418
97,-588
97,-417
97,-74
97,-583
97,-879
97,-755
97,-584
97,-754
97,-596
97,-426
97,-2
97,-252
97,-264
97,-266
97,-594
97,-595
97,-587
97,-749
97,-750
97,-250
97,-5
97,-251
97,-859
97,-419
97,-95
97,-101
97,-862
97,-71
97,-83
97,-863
97,-421
97,-425
97,-861
97,-256
97,-424
97,-68
97,-70
97,-591
97,-258
97,0
97,-758
97,-858
97,-88
97,-429
97,-423
97,-762
97,-86
97,-96
97,-257
97,-69
97,-7
97,-761
97,-760
97,-84
97,-422
97,-416
97,-860
97,-259
97,-864
97,-97
97,-254
97,-589
97,-877
97,-255
97,-866
97,-1
97,-4
97,-100
97,-757
97,-428
97,-265
97,-87
97,-420
97,-590
98,-57
98,0
98,-69
98,-257
98,-263
98,-750
98,-56
98,-84
98,-251
98,-77
98,-585
98,-597
98,-593
98,-583
98,-584
98,-749
98,-421
98,-427
98,-98
98,-761
98,-418
98,-420
98,-416
98,-88
98,-753
98,-751
98,-879
98,-760
98,-755
98,-55
98,-596
98,-419
98,-757
98,-255
98,-877
98,-97
98,-756
98,-417
98,-254
98,-253
98,-4
98,-250
98,-252
98,-754
98,-425
98,-2
98,-76
98,-7
98,-878
98,-752
98,-86
98,-423
98,-422
98,-3
98,-762
98,-594
98,-262
98,-70
98,-424
98,-426
98,-256
98,-758
98,-259
98,-258
98,-428
98,-586
98,-1
98,-5
98,-595
98,-587
98,-591
98,-429
98,-589
98,-51
98,-101
98,-87
98,-590
98,-83
98,-763
98,-52
98,-264
98,-858
98,-866
98,-6
98,-588
98,-592
98,-50
99,-86
99,-595
99,-426
99,-263
99,-593
99,-877
99,-1
99,-58
99,-53
99,-264
99,-265
99,-54
99,-52
99,-879
99,-7
99,-878
99,-594
99,-428
99,-759
99,-98
99,-259
99,-55
99,-84
99,-6
99,-2
99,-416
99,-760
99,-88
99,-761
99,-49
99,-5
99,-87
99,-427
99,-77
99,-4
99,0
99,-3
99,-83
99,-762
100,-84
100,-53
100,-594
100,-49
100,-54
100,-759
100,-262
100,-427
100,-878
100,-95
100,-3
100,-98
100,-4
100,-2
100,0
100,-96
100,-77
100,-861
100,-101
100,-877
100,-762
100,-595
100,-99
100,-5
100,-83
100,-6
100,-87
100,-1
100,-761
100,-760
100,-879
100,-426
100,-596
100,-88
100,-263
100,-264
100,-100
100,-86
100,-7
101,-2
101,-3
101,-763
101,-54
101,-53
101,-7
101,-861
101,-86
101,0
101,-75
101,-5
101,-426
101,-878
101,-262
101,-83
101,-762
101,-55
101,-596
101,-583
101,-595
101,-49
101,-761
101,-1
101,-73
101,-6
101,-263
101,-877
101,-87
101,-865
101,-760
101,-100
101,-866
101,-427
101,-4
101,-99
101,-597
101,-879
101,-74
101,-88
101,-84
101,-428
101,-416
102,-754
102,-426
102,-866
102,-590
102,-74
102,-589
102,-262
102,-756
102,-424
102,-762
102,-86
102,-4
102,-71
102,-88
102,-428
102,-6
102,-877
102,-596
102,-83
102,-757
102,-73
102,-425
102,-54
102,-879
102,-55
102,-595
102,-755
102,-72
102,0
102,-861
102,-864
102,-84
102,-422
102,-56
102,-751
102,-49
102,-421
102,-76
102,-420
102,-416
102,-588
102,-750
102,-863
102,-597
102,-583
102,-763
102,-761
102,-584
102,-749
102,-591
102,-419
102,-87
102,-586
102,-417
102,-427
102,-585
102,-3
102,-592
102,-263
102,-418
102,-587
102,-752
102,-5
102,-753
102,-423
102,-2
102,-75
102,-758
102,-52
102,-1
102,-878
102,-7
103,-424
103,-77
103,-586
103,-419
103,-862
103,-584
103,-426
103,-87
103,0
103,-587
103,-749
103,-761
103,-591
103,-1
103,-425
103,-877
103,-753
103,-418
103,-592
103,-4
103,-6
103,-86
103,-3
103,-585
103,-878
103,-756
103,-84
103,-88
103,-427
103,-262
103,-417
103,-866
103,-597
103,-596
103,-595
103,-57
103,-762
103,-428
103,-76
103,-755
103,-758
103,-421
103,-7
103,-263
103,-879
103,-861
103,-751
103,-763
103,-56
103,-590
103,-71
103,-752
103,-422
103,-2
103,-757
103,-420
103,-588
103,-750
103,-589
103,-51
103,-83
103,-416
103,-754
103,-5
103,-583
103,-423
104,-4
104,-96
104,-70
104,-101
104,-761
104,-861
104,-95
104,-758
104,-87
104,-84
104,-83
104,-866
104,-86
104,-879
104,-1
104,-416
104,-88
104,-877
104,-7
104,-762
104,-261
104,-5
104,-3
104,0
104,-263
104,-878
104,-583
104,-749
104,-426
104,-596
104,-91
104,-2
104,-427
104,-262
104,-6
104,-77
104,-595
105,0
105,-426
105,-84
105,-71
105,-596
105,-99
105,-595
105,-98
105,-83
105,-3
105,-879
105,-86
105,-70
105,-87
105,-762
105,-262
105,-77
105,-58
105,-427
105,-95
105,-101
105,-7
105,-100
105,-877
105,-88
105,-761
105,-97
105,-261
105,-763
105,-263
105,-597
105,-428
105,-5
105,-92
105,-878
105,-91
105,-1
105,-6
105,-52
105,-96
105,-2
105,-4
106,-51
106,-71
106,-88
106,-878
106,-84
106,-754
106,-86
106,-74
106,-762
106,-427
106,-757
106,-591
106,-264
106,-585
106,-76
106,-5
106,-428
106,-758
106,-1
106,-752
106,-879
106,-2
106,-52
106,-7
106,-590
106,-75
106,-877
106,0
106,-3
106,-101
106,-588
106,-83
106,-753
106,-750
106,-87
106,-586
106,-595
106,-262
106,-751
106,-596
106,-58
106,-597
106,-584
106,-6
106,-263
106,-589
106,-592
106,-72
106,-587
106,-73
106,-4
106,-50
106,-583
106,-761
106,-756
106,-749
106,-755
107,-752
107,-595
107,-53
107,-264
107,-756
107,-72
107,-588
107,-52
107,-87
107,-2
107,-755
107,-753
107,-877
107,-596
107,-593
107,-750
107,-594
107,-3
107,-754
107,-95
107,-761
107,-73
107,-75
107,-760
107,-83
107,-592
107,-7
107,-590
107,-878
107,-96
107,-427
107,-879
107,-263
107,0
107,-587
107,-762
107,-589
107,-97
107,-100
107,-583
107,-758
107,-591
107,-584
107,-751
107,-749
107,-5
107,-74
107,-585
107,-50
107,-586
107,-1
107,-101
107,-49
107,-428
107,-88
107,-757
107,-86
107,-6
107,-84
107,-4
108,-5
108,-97
108,-596
108,-595
108,-98
108,-878
108,-84
108,-50
108,-583
108,-7
108,-53
108,-428
108,-4
108,-2
108,-760
108,-1
108,-265
108,-6
108,-49
108,-3
108,-594
108,-54
108,-263
108,-58
108,-86
108,-877
108,-87
108,-101
108,-264
108,-83
108,-762
108,-761
108,-879
108,-88
108,-429
108,-427
108,0
109,-595
109,-86
109,-49
109,-763
109,-55
109,-50
109,-5
109,-762
109,-877
109,-879
109,-87
109,-597
109,-878
109,-56
109,-84
109,-760
109,-4
109,-88
109,-6
109,-428
109,-430
109,-1
109,-264
109,-7
109,-83
109,0
109,-53
109,-98
109,-57
109,-761
109,-594
109,-2
109,-265
109,-429
109,-3
109,-596
109,-54
110,-597
110,-96
110,-4
110,-76
110,-879
110,-98
110,-86
110,-87
110,-263
110,-75
110,-73
110,-877
110,-596
110,-762
110,-3
110,-5
110,-431
110,-83
110,-99
110,-6
110,-7
110,-88
110,-429
110,0
110,-2
110,-763
110,-72
110,-265
110,-430
110,-95
110,-1
110,-84
110,-595
110,-101
110,-761
110,-264
110,-100
110,-74
110,-878
111,-761
111,-763
111,-760
111,-77
111,-76
111,-430
111,-879
111,-5
111,-597
111,-265
111,-429
111,-87
111,-6
111,-595
111,-84
111,-594
111,0
111,-71
111,-83
111,-878
111,-264
111,-88
111,-762
111,-7
111,-877
111,-2
111,-100
111,-1
111,-86
111,-428
111,-3
111,-4
111,-596
111,-99
112,-595
112,-265
112,-879
112,-264
112,-84
112,-762
112,-4
112,-7
112,-5
112,-877
112,-596
112,-878
112,-88
112,-83
112,0
112,-428
112,-6
112,-429
112,-2
112,-87
112,-86
112,-3
112,-77
112,-761
112,-760
112,-1
112,-70
113,-4
113,-795
113,-88
113,-429
113,-878
113,-749
113,-382
113,-86
113,-481
113,-50
113,-596
113,-762
113,-53
113,-659
113,-246
113,-761
113,0
113,-264
113,-413
113,-597
113,-763
113,-51
113,-54
113,-764
113,-877
113,-6
113,-351
113,-2
113,-3
113,-727
113,-1
113,-292
113,-263
113,-193
113,-595
113,-52
113,-7
113,-283
113,-77
113,-266
113,-87
113,-70
113,-84
113,-314
113,-879
113,-83
113,-5
113,-265
114,-1
114,-763
114,-264
114,-86
114,-72
114,-428
114,-3
114,-77
114,-87
114,-84
114,-4
114,-878
114,-5
114,-6
114,-2
114,-429
114,-54
114,-879
114,-265
114,-71
114,-88
114,-83
114,-7
114,-865
114,0
114,-866
114,-595
114,-263
114,-762
114,-49
114,-76
114,-596
114,-877
114,-55
114,-761
115,-3
115,-58
115,-429
115,0
115,-760
115,-266
115,-4
115,-84
115,-6
115,-55
115,-863
115,-74
115,-88
115,-759
115,-83
115,-595
115,-593
115,-2
115,-265
115,-76
115,-267
115,-49
115,-594
115,-7
115,-5
115,-762
115,-758
115,-1
115,-428
115,-86
115,-761
115,-264
115,-592
115,-87
115,-75
115,-878
115,-879
115,-72
115,-877
115,-596
115,-73
116,-594
116,-758
116,-429
116,-83
116,-84
116,-56
116,-2
116,-49
116,-877
116,-4
116,-264
116,-860
116,-861
116,-50
116,-7
116,-596
116,-427
116,-86
116,-88
116,-87
116,-266
116,-878
116,-762
116,-760
116,-3
116,-6
116,-592
116,-430
116,-431
116,-863
116,-879
116,-759
116,-5
116,-265
116,0
116,-1
116,-267
116,-57
116,-595
116,-428
116,-761
116,-593
117,-433
117,-773
117,-776
117,-774
117,-430
117,-760
117,-759
117,-258
117,-431
117,-256
117,-595
117,-768
117,-877
117,-778
117,-597
117,-264
117,-769
117,-596
117,-770
117,-265
117,-88
117,-3
117,-257
117,-5
117,-434
117,-263
117,-758
117,-267
117,-772
117,-428
117,-83
117,-261
117,-775
117,-436
117,-767
117,-260
117,-777
117,-771
117,-429
117,-84
117,-435
117,-259
117,-262
117,-878
117,-432
117,-266
117,-2
117,-6
117,-879
117,-602
117,-609
117,-860
117,-7
117,-4
117,-594
117,-604
117,-51
117,-598
117,-52
117,-53
117,-600
117,-612
117,-765
117,-86
117,-601
117,-593
117,-603
117,-608
117,-607
117,0
117,-763
117,-611
117,-766
117,-50
117,-56
117,-610
117,-1
117,-605
117,-599
117,-859
117,-606
117,-761
117,-764
117,-55
117,-762
117,-863
117,-87
117,-54
118,-776
118,-608
118,-772
118,-598
118,-434
118,-862
118,-77
118,-5
118,-616
118,-779
118,-764
118,-767
118,-606
118,-599
118,-607
118,-778
118,0
118,-777
118,-263
118,-432
118,-765
118,-601
118,-255
118,-431
118,-53
118,-611
118,-256
118,-597
118,-769
118,-4
118,-860
118,-877
118,-861
118,-762
118,-596
118,-55
118,-773
118,-433
118,-88
118,-437
118,-71
118,-602
118,-878
118,-258
118,-84
118,-609
118,-257
118,-766
118,-610
118,-879
118,-768
118,-770
118,-775
118,-600
118,-612
118,-7
118,-262
118,-436
118,-54
118,-2
118,-613
118,-782
118,-86
118,-614
118,-774
118,-615
118,-254
118,-783
118,-252
118,-781
118,-605
118,-617
118,-251
118,-780
118,-771
118,-604
118,-863
118,-261
118,-51
118,-603
118,-3
118,-265
118,-83
118,-253
118,-264
118,-52
118,-763
118,-87
118,-1
118,-435
118,-250
118,-259
118,-260
118,-266
118,-6
119,-250
119,-782
119,-621
119,0
119,-613
119,-1
119,-246
119,-615
119,-436
119,-612
119,-6
119,-256
119,-786
119,-620
119,-785
119,-252
119,-611
119,-76
119,-248
119,-439
119,-86
119,-70
119,-783
119,-878
119,-435
119,-788
119,-623
119,-437
119,-71
119,-88
119,-864
119,-245
119,-5
119,-789
119,-72
119,-622
119,-624
119,-438
119,-863
119,-614
119,-776
119,-787
119,-257
119,-2
119,-74
119,-84
119,-790
119,-7
119,-4
119,-251
119,-877
119,-617
119,-73
119,-87
119,-75
119,-249
119,-865
119,-619
119,-255
119,-779
119,-781
119,-616
119,-778
119,-77
119,-866
119,-83
119,-784
119,-777
119,-879
119,-247
119,-254
119,-253
119,-618
119,-780
119,-3
120,-866
120,-86
120,-787
120,-790
120,-784
120,-257
120,-253
120,-2
120,-786
120,-51
120,-436
120,-865
120,-621
120,-782
120,-83
120,-439
120,-4
120,-878
120,-783
120,-254
120,-623
120,-3
120,-437
120,-71
120,-788
120,-88
120,-879
120,-84
120,-781
120,-245
120,-87
120,-622
120,-617
120,-7
120,-877
120,-616
120,-438
120,-789
120,-619
120,-5
120,-251
120,-620
120,-1
120,0
120,-249
120,-435
120,-252
120,-615
120,-618
120,-246
120,-442
120,-77
120,-258
120,-248
120,-256
120,-441
120,-250
120,-247
120,-255
120,-6
120,-440
120,-785
120,-624
121,-773
121,-607
121,-7
121,-438
121,-5
121,-780
121,-256
121,-785
121,-101
121,-6
121,-87
121,-779
121,0
121,-617
121,-616
121,-262
121,-84
121,-50
121,-787
121,-258
121,-248
121,-878
121,-776
121,-602
121,-877
121,-254
121,-441
121,-615
121,-772
121,-437
121,-781
121,-71
121,-783
121,-88
121,-442
121,-91
121,-609
121,-259
121,-605
121,-49
121,-251
121,-879
121,-774
121,-611
121,-608
121,-439
121,-436
121,-782
121,-614
121,-604
121,-265
121,-777
121,-784
121,-263
121,-1
121,-621
121,-613
121,-255
121,-253
121,-440
121,-86
121,-786
121,-771
121,-603
121,-612
121,-252
121,-260
121,-264
121,-620
121,-3
121,-610
121,-4
121,-619
121,-618
121,-83
121,-261
121,-769
121,-606
121,-770
121,-58
121,-768
121,-775
121,-257
121,-778
121,-2
122,-772
122,-771
122,-434
122,-271
122,-84
122,-758
122,-96
122,-764
122,-98
122,-261
122,-7
122,-599
122,-260
122,-766
122,-70
122,-263
122,-777
122,-778
122,-595
122,-606
122,-87
122,-49
122,-779
122,-91
122,-605
122,-781
122,-95
122,-92
122,-604
122,-83
122,-93
122,-6
122,-264
122,-101
122,-94
122,-603
122,-1
122,-265
122,-266
122,0
122,-780
122,-100
122,-763
122,-602
122,-601
122,-878
122,-77
122,-267
122,-270
122,-877
122,-71
122,-88
122,-864
122,-433
122,-773
122,-596
122,-762
122,-269
122,-4
122,-99
122,-861
122,-2
122,-774
122,-613
122,-86
122,-612
122,-262
122,-600
122,-611
122,-775
122,-268
122,-610
122,-609
122,-594
122,-432
122,-608
122,-776
122,-607
122,-435
122,-614
122,-257
122,-436
122,-57
122,-879
122,-3
122,-863
122,-438
122,-768
122,-767
122,-615
122,-439
122,-759
122,-259
122,-761
122,-770
122,-437
122,-258
122,-5
122,-97
122,-598
122,-58
122,-862
122,-760
122,-769
122,-597
122,-765
122,-441
122,-440
122,-593
122,-442
123,-589
123,-92
123,-71
123,-76
123,-2
123,-437
123,-7
123,-861
123,-761
123,-862
123,-88
123,-591
123,-760
123,-267
123,-594
123,-757
123,-764
123,-73
123,-430
123,-599
123,-434
123,-86
123,-593
123,-432
123,-598
123,-99
123,-93
123,-878
123,-75
123,-600
123,-604
123,-859
123,-272
123,-83
123,-74
123,-94
123,-270
123,-759
123,-603
123,-1
123,-265
123,-84
123,-758
123,-597
123,-590
123,-58
123,-59
123,-592
123,-101
123,-268
123,-877
123,-56
123,-770
123,-96
123,-768
123,-755
123,0
123,-436
123,-5
123,-266
123,-72
123,-77
123,-95
123,-601
123,-435
123,-433
123,-271
123,-6
123,-762
123,-87
123,-3
123,-765
123,-55
123,-100
123,-767
123,-763
123,-49
123,-98
123,-863
123,-269
123,-91
123,-769
123,-766
123,-602
123,-864
123,-865
123,-97
123,-756
123,-4
123,-431
123,-596
123,-879
123,-595
123,-860
124,-866
124,-77
124,-877
124,-58
124,-3
124,-755
124,-49
124,-86
124,-588
124,-879
124,-592
124,-59
124,-648
124,-84
124,-72
124,-1
124,-587
124,-753
124,0
124,-450
124,-431
124,-74
124,-83
124,-272
124,-560
124,-878
124,-75
124,-87
124,-754
124,-50
124,-428
124,-7
124,-670
124,-758
124,-54
124,-432
124,-429
124,-101
124,-2
124,-73
124,-590
124,-76
124,-757
124,-55
124,-430
124,-91
124,-6
124,-589
124,-271
124,-4
124,-591
124,-88
124,-756
124,-865
124,-5
125,-84
125,-878
125,-429
125,-86
125,-7
125,-428
125,-4
125,-2
125,-50
125,-88
125,-52
125,-754
125,-753
125,0
125,-587
125,-272
125,-87
125,-83
125,-5
125,-273
125,-6
125,-77
125,-858
125,-51
125,-3
125,-877
125,-755
125,-879
125,-71
125,-588
125,-58
125,-1
125,-589
125,-53
125,-866
126,-858
126,-271
126,-272
126,-6
126,-87
126,-77
126,-586
126,-57
126,-88
126,-4
126,-1
126,-70
126,-86
126,-83
126,-866
126,-587
126,-755
126,-589
126,-753
126,-71
126,-2
126,-95
126,-428
126,-3
126,-7
126,-877
126,-101
126,-754
126,-588
126,-878
126,-879
126,0
126,-429
126,-273
126,-5
126,-84
127,-590
127,-99
127,-428
127,-4
127,-755
127,-71
127,-272
127,-84
127,-756
127,-877
127,-2
127,-269
127,-754
127,-88
127,-5
127,-73
127,-273
127,-6
127,-74
127,-72
127,-87
127,-879
127,-429
127,-878
127,-866
127,-858
127,-101
127,-100
127,-3
127,-7
127,-589
127,-86
127,-77
127,-591
127,-76
127,-271
127,-97
127,-95
127,-1
127,-270
127,-96
127,-98
127,-588
127,-753
127,-587
127,0
127,-75
127,-83
128,-6
128,-589
128,-756
128,-83
128,-755
128,-1
128,-591
128,-590
128,-269
128,-74
128,-72
128,-76
128,-271
128,-4
128,-87
128,-5
128,-267
128,-758
128,-757
128,-84
128,-77
128,-3
128,-73
128,-101
128,-270
128,-75
128,0
128,-592
128,-428
128,-754
128,-588
128,-865
128,-86
128,-429
128,-88
128,-879
128,-878
128,-2
128,-877
128,-859
128,-268
128,-7
129,-757
129,-267
129,-87
129,-429
129,-3
129,-4
129,-427
129,-86
129,-77
129,-591
129,-2
129,-593
129,-5
129,-6
129,-95
129,-84
129,-759
129,-83
129,-266
129,-7
129,-270
129,-428
129,-88
129,-879
129,-268
129,-269
129,-877
129,-1
129,-878
129,0
129,-592
129,-265
129,-758
129,-594
130,-3
130,-101
130,-592
130,-594
130,-593
130,-758
130,-428
130,-264
130,0
130,-7
130,-426
130,-2
130,-427
130,-88
130,-759
130,-6
130,-87
130,-265
130,-4
130,-267
130,-5
130,-84
130,-95
130,-879
130,-878
130,-1
130,-760
130,-86
130,-83
130,-877
130,-266
131,-97
131,-595
131,-594
131,-83
131,-427
131,-95
131,-86
131,-2
131,-428
131,-426
131,-760
131,-860
131,-101
131,-879
131,0
131,-77
131,-99
131,-3
131,-84
131,-861
131,-4
131,-87
131,-866
131,-6
131,-76
131,-761
131,-265
131,-264
131,-759
131,-70
131,-100
131,-878
131,-593
131,-877
131,-5
131,-1
131,-98
131,-96
131,-7
131,-88
131,-71
132,-84
132,-594
132,-428
132,-858
132,-878
132,-879
132,-593
132,-760
132,-101
132,-5
132,-877
132,-87
132,-88
132,-3
132,-4
132,-83
132,-759
132,-6
132,0
132,-426
132,-427
132,-7
132,-866
132,-859
132,-1
132,-2
132,-761
132,-265
132,-595
132,-861
132,-264
132,-86
133,-861
133,-879
133,-593
133,-594
133,-6
133,-878
133,-858
133,-84
133,-426
133,-265
133,-7
133,-1
133,-3
133,-83
133,-877
133,-2
133,-4
133,-760
133,-87
133,-88
133,-428
133,-86
133,-758
133,-761
133,0
133,-759
133,-427
133,-264
133,-595
133,-5
134,-864
134,0
134,-6
134,-86
134,-1
134,-593
134,-88
134,-5
134,-3
134,-878
134,-2
134,-862
134,-83
134,-428
134,-264
134,-594
134,-427
134,-877
134,-4
134,-761
134,-858
134,-760
134,-87
134,-84
134,-263
134,-7
134,-759
134,-426
134,-879
134,-595
134,-101
134,-265
134,-863
135,-685
135,-817
135,-760
135,-264
135,-283
135,-727
135,-93
135,-83
135,-95
135,-351
135,-94
135,-764
135,-549
135,-391
135,-560
135,-659
135,-758
135,-292
135,-413
135,-246
135,-371
135,-761
135,-84
135,-426
135,-529
135,-314
135,-595
135,-96
135,-762
135,-795
135,-303
135,-7
135,-6
135,-323
135,-360
135,-97
135,-1
135,-593
135,-492
135,-3
135,-596
135,-696
135,-877
135,-879
135,-637
135,-204
135,-2
135,-101
135,-450
135,-439
135,-5
135,-88
135,-617
135,-512
135,-362
135,-837
135,0
135,-224
135,-427
135,-878
135,-759
135,-594
135,-597
135,-215
135,-235
135,-98
135,-503
135,-481
135,-86
135,-428
135,-4
135,-193
135,-100
135,-429
135,-763
135,-178
135,-404
135,-263
135,-87
135,-99
135,-382
135,-749
136,-879
136,-92
136,-262
136,-427
136,-862
136,-6
136,-5
136,-7
136,-595
136,-762
136,-428
136,-763
136,-263
136,-2
136,-761
136,-4
136,-3
136,-429
136,-88
136,-878
136,-101
136,-597
136,-877
136,-87
136,-264
136,-1
136,-84
136,0
136,-83
136,-86
136,-596
137,-262
137,-428
137,0
137,-859
137,-762
137,-86
137,-87
137,-877
137,-863
137,-101
137,-427
137,-2
137,-6
137,-862
137,-3
137,-4
137,-263
137,-760
137,-84
137,-879
137,-594
137,-860
137,-595
137,-864
137,-91
137,-83
137,-596
137,-88
137,-7
137,-5
137,-865
137,-761
137,-597
137,-878
137,-1
137,-861
137,-264
138,-1
138,-594
138,-84
138,-878
138,-91
138,-2
138,-427
138,0
138,-429
138,-595
138,-761
138,-263
138,-593
138,-87
138,-877
138,-4
138,-264
138,-879
138,-866
138,-3
138,-596
138,-5
138,-6
138,-7
138,-265
138,-762
138,-83
138,-428
138,-86
138,-88
138,-760
139,-3
139,-1
139,-264
139,-763
139,-594
139,-761
139,-2
139,-879
139,-83
139,-92
139,-4
139,-7
139,-428
139,-86
139,-5
139,-87
139,-760
139,-263
139,-858
139,0
139,-762
139,-88
139,-598
139,-429
139,-84
139,-265
139,-6
139,-596
139,-877
139,-878
139,-597
139,-595
139,-430
140,-597
140,-6
140,-864
140,-263
140,-84
140,-2
140,-879
140,-83
140,-3
140,-5
140,-4
140,-88
140,-87
140,-763
140,-598
140,-429
140,-86
140,-859
140,-7
140,0
140,-764
140,-262
140,-596
140,-762
140,-878
140,-264
140,-865
140,-877
140,-1
140,-430
140,-761
141,-83
141,-763
141,-877
141,-428
141,-597
141,-879
141,-4
141,0
141,-2
141,-764
141,-88
141,-6
141,-7
141,-1
141,-3
141,-86
141,-861
141,-264
141,-863
141,-84
141,-878
141,-862
141,-262
141,-430
141,-87
141,-598
141,-5
141,-429
141,-263
142,-5
142,-764
142,-86
142,-96
142,-84
142,-765
142,0
142,-598
142,-878
142,-262
142,-6
142,-877
142,-88
142,-99
142,-429
142,-430
142,-879
142,-597
142,-599
142,-7
142,-3
142,-4
142,-87
142,-263
142,-83
142,-98
142,-2
142,-1
142,-100
142,-428
142,-264
142,-763
142,-97
143,-877
143,-429
143,-763
143,-765
143,-598
143,-431
143,-879
143,-263
143,-6
143,-766
143,-764
143,-100
143,-4
143,-5
143,-261
143,-599
143,-84
143,-87
143,-878
143,-2
143,0
143,-600
143,-101
143,-7
143,-3
143,-430
143,-95
143,-83
143,-88
143,-262
143,-597
143,-1
143,-86
144,-83
144,-601
144,-4
144,-7
144,-599
144,-260
144,-430
144,-84
144,-3
144,-602
144,-86
144,-877
144,-101
144,-878
144,-768
144,-5
144,-261
144,-1
144,-262
144,-431
144,-879
144,-600
144,-765
144,-6
144,-88
144,-87
144,-767
144,0
144,-766
144,-2
145,-766
145,-430
145,-601
145,-768
145,-2
145,-259
145,0
145,-431
145,-600
145,-769
145,-86
145,-879
145,-87
145,-767
145,-877
145,-84
145,-7
145,-878
145,-5
145,-1
145,-432
145,-602
145,-603
145,-88
145,-6
145,-3
145,-83
145,-4
145,-260
145,-261
145,-101
146,-431
146,-770
146,-605
146,-88
146,-96
146,-2
146,-259
146,-258
146,-879
146,-6
146,-877
146,-87
146,-5
146,-878
146,0
146,-3
146,-432
146,-769
146,-604
146,-84
146,-602
146,-7
146,-95
146,-83
146,-86
146,-603
146,-260
146,-101
146,-4
146,-1
146,-768
147,-605
147,-603
147,-877
147,-771
147,-6
147,-434
147,-432
147,-97
147,-604
147,-431
147,-260
147,-86
147,-99
147,-2
147,-607
147,-769
147,-3
147,-83
147,-606
147,-88
147,0
147,-879
147,-878
147,-770
147,-259
147,-772
147,-96
147,-258
147,-84
147,-87
147,-98
147,-4
147,-433
147,-257
147,-1
147,-5
147,-773
147,-100
147,-7
148,-605
148,-6
148,-1
148,-86
148,-878
148,-83
148,-606
148,-259
148,-5
148,-258
148,-877
148,-4
148,-7
148,-88
148,-772
148,-879
148,-3
148,-257
148,-2
148,-771
148,-773
148,-433
148,-87
148,-84
148,-434
148,-607
148,-432
148,0
149,-879
149,-83
149,-88
149,-432
149,-2
149,-86
149,-877
149,-258
149,-87
149,-878
149,-607
149,-1
149,0
149,-772
149,-7
149,-5
149,-257
149,-773
149,-433
149,-84
149,-606
149,-4
149,-6
149,-3
150,-5
150,-605
150,-865
150,-879
150,-866
150,-87
150,-432
150,-877
150,-258
150,-431
150,-433
150,-607
150,-256
150,-606
150,-101
150,-95
150,-3
150,-772
150,-773
150,-878
150,-88
150,-83
150,-4
150,-771
150,-7
150,-84
150,-86
150,-6
150,-1
150,0
150,-257
150,-2
151,-97
151,-99
151,-4
151,-101
151,-858
151,-430
151,-5
151,-88
151,-864
151,-83
151,-256
151,-773
151,-257
151,-2
151,-878
151,-3
151,-604
151,-96
151,-7
151,-432
151,-770
151,-87
151,-6
151,-866
151,0
151,-772
151,-606
151,-605
151,-431
151,-771
151,-879
151,-877
151,-1
151,-86
151,-95
151,-100
151,-865
151,-84
151,-98
152,-603
152,-878
152,-605
152,-877
152,-866
152,-96
152,-604
152,-3
152,-771
152,-1
152,-858
152,-86
152,-2
152,-770
152,0
152,-769
152,-87
152,-431
152,-256
152,-859
152,-101
152,-259
152,-5
152,-257
152,-879
152,-865
152,-84
152,-6
152,-4
152,-429
152,-430
152,-7
152,-83
152,-258
152,-88
153,-768
153,-865
153,-601
153,-429
153,-5
153,-767
153,-259
153,-6
153,-878
153,-257
153,-603
153,-2
153,-88
153,-83
153,-7
153,-860
153,-4
153,-1
153,-86
153,-84
153,-879
153,-258
153,-861
153,-3
153,-430
153,-95
153,-770
153,-769
153,-602
153,-766
153,-87
153,0
153,-604
153,-877
153,-859
153,-866
154,-86
154,-765
154,-258
154,-430
154,-83
154,-427
154,-603
154,-257
154,-88
154,-599
154,-4
154,-6
154,-259
154,-84
154,-865
154,-95
154,-878
154,-602
154,-768
154,-879
154,-260
154,-601
154,-429
154,-7
154,-87
154,-5
154,-767
154,-600
154,-769
154,-3
154,-877
154,-428
154,-1
154,0
154,-2
154,-766
155,-84
155,-87
155,-2
155,-878
155,-600
155,-599
155,-765
155,-4
155,-428
155,-601
155,-86
155,-766
155,-879
155,-427
155,-5
155,-260
155,-259
155,-767
155,-7
155,0
155,-429
155,-6
155,-88
155,-3
155,-877
155,-83
155,-1
156,-7
156,-428
156,-598
156,-865
156,-84
156,-86
156,-879
156,-261
156,-764
156,-101
156,-599
156,-861
156,-5
156,-600
156,-260
156,-96
156,-1
156,-95
156,-87
156,-3
156,-866
156,-88
156,-427
156,-765
156,-259
156,-6
156,0
156,-83
156,-878
156,-877
156,-4
156,-2
157,-763
157,-429
157,-98
157,-261
157,-764
157,-96
157,-7
157,-2
157,-6
157,-428
157,-88
157,-879
157,-878
157,-599
157,-3
157,-97
157,-1
157,-427
157,-83
157,-4
157,-5
157,-866
157,-87
157,-99
157,-262
157,-860
157,-861
157,-100
157,-101
157,-84
157,-86
157,-597
157,-598
157,-877
157,-859
157,-95
157,0
158,-262
158,-878
158,-1
158,-427
158,-866
158,-596
158,-87
158,-95
158,-83
158,-6
158,-4
158,-763
158,-858
158,-88
158,-879
158,-597
158,-428
158,-2
158,-5
158,0
158,-764
158,-762
158,-429
158,-261
158,-84
158,-86
158,-3
158,-861
158,-101
158,-877
158,-598
158,-7
159,-95
159,-597
159,-764
159,-5
159,-263
159,-858
159,0
159,-262
159,-877
159,-4
159,-862
159,-2
159,-87
159,-1
159,-86
159,-763
159,-3
159,-878
159,-261
159,-863
159,-762
159,-865
159,-429
159,-83
159,-598
159,-428
159,-88
159,-6
159,-84
159,-879
159,-596
159,-864
159,-7
160,-262
160,0
160,-5
160,-879
160,-598
160,-863
160,-762
160,-263
160,-101
160,-88
160,-7
160,-3
160,-96
160,-429
160,-95
160,-764
160,-428
160,-1
160,-878
160,-596
160,-763
160,-86
160,-2
160,-264
160,-6
160,-4
160,-858
160,-877
160,-87
160,-84
160,-83
160,-597
161,-3
161,-428
161,-84
161,-263
161,0
161,-597
161,-4
161,-86
161,-596
161,-100
161,-265
161,-98
161,-7
161,-429
161,-83
161,-763
161,-879
161,-99
161,-264
161,-6
161,-96
161,-2
161,-877
161,-762
161,-97
161,-87
161,-5
161,-95
161,-101
161,-88
161,-878
161,-761
161,-1
162,-84
162,-877
162,-596
162,-3
162,-764
162,-88
162,-429
162,-264
162,0
162,-763
162,-878
162,-2
162,-6
162,-96
162,-83
162,-762
162,-101
162,-86
162,-597
162,-87
162,-263
162,-879
162,-761
162,-7
162,-265
162,-4
162,-598
162,-430
162,-428
162,-1
162,-5
163,-862
163,-95
163,-263
163,-863
163,-2
163,-598
163,-7
163,-596
163,-762
163,-865
163,-866
163,-83
163,-877
163,-88
163,-429
163,-4
163,-3
163,-87
163,-428
163,-597
163,-6
163,0
163,-879
163,-86
163,-861
163,-864
163,-430
163,-1
163,-264
163,-5
163,-84
163,-763
163,-764
163,-878
164,-428
164,-87
164,-879
164,-861
164,-84
164,-878
164,-429
164,-5
164,0
164,-88
164,-597
164,-596
164,-877
164,-761
164,-101
164,-6
164,-7
164,-762
164,-3
164,-4
164,-263
164,-2
164,-264
164,-763
164,-95
164,-430
164,-1
164,-83
164,-86
165,-77
165,-879
165,-595
165,-101
165,-100
165,-99
165,-83
165,-861
165,-263
165,-84
165,-88
165,-429
165,-67
165,-5
165,-763
165,-95
165,-2
165,-1
165,-86
165,-4
165,-87
165,-3
165,-762
165,-7
165,-96
165,-761
165,-97
165,-877
165,-264
165,0
165,-98
165,-878
165,-428
165,-596
165,-6
166,-596
166,-2
166,-83
166,-864
166,-263
166,-77
166,-7
166,-88
166,-75
166,-866
166,-1
166,-87
166,-862
166,-69
166,-73
166,-878
166,-865
166,-264
166,-428
166,-877
166,-74
166,-429
166,-68
166,-879
166,0
166,-76
166,-72
166,-84
166,-101
166,-67
166,-6
166,-5
166,-762
166,-863
166,-763
166,-71
166,-3
166,-761
166,-861
166,-4
166,-70
166,-86
167,-264
167,-596
167,-877
167,-87
167,-1
167,-7
167,-88
167,-84
167,-761
167,-70
167,-263
167,-83
167,-4
167,-86
167,-879
167,-430
167,-77
167,-265
167,-762
167,-597
167,-68
167,-866
167,-6
167,-763
167,0
167,-69
167,-3
167,-428
167,-429
167,-5
167,-67
167,-2
167,-878
168,-96
168,-1
168,-429
168,-597
168,-4
168,-879
168,-430
168,-70
168,0
168,-761
168,-763
168,-595
168,-72
168,-3
168,-86
168,-84
168,-878
168,-5
168,-100
168,-99
168,-264
168,-428
168,-877
168,-6
168,-861
168,-87
168,-265
168,-7
168,-69
168,-2
168,-596
168,-88
168,-762
168,-263
168,-83
168,-71
169,-71
169,-595
169,-100
169,-72
169,-96
169,-4
169,-864
169,-74
169,-263
169,-878
169,-5
169,-73
169,-7
169,-87
169,-6
169,-762
169,-99
169,-98
169,-86
169,-862
169,-2
169,-264
169,-877
169,-865
169,-866
169,-95
169,-84
169,-88
169,-597
169,-428
169,-265
169,-879
169,-1
169,-83
169,-101
169,-3
169,0
169,-761
169,-861
169,-863
169,-596
169,-429
169,-763
170,-98
170,-428
170,-7
170,0
170,-762
170,-2
170,-3
170,-75
170,-597
170,-76
170,-763
170,-84
170,-878
170,-864
170,-5
170,-265
170,-87
170,-74
170,-863
170,-596
170,-595
170,-761
170,-4
170,-430
170,-1
170,-879
170,-263
170,-862
170,-6
170,-88
170,-83
170,-101
170,-73
170,-865
170,-86
170,-877
170,-429
170,-264
171,0
171,-760
171,-596
171,-761
171,-6
171,-597
171,-877
171,-97
171,-878
171,-75
171,-88
171,-7
171,-3
171,-265
171,-429
171,-428
171,-595
171,-86
171,-263
171,-4
171,-2
171,-84
171,-264
171,-5
171,-83
171,-87
171,-763
171,-594
171,-762
171,-879
171,-1
171,-76
172,-97
172,-265
172,-86
172,-761
172,-429
172,-73
172,-88
172,-595
172,-100
172,-5
172,-430
172,-96
172,-879
172,-4
172,-83
172,-1
172,-877
172,-670
172,-95
172,-101
172,-596
172,-2
172,-3
172,-763
172,-87
172,-594
172,-84
172,-597
172,0
172,-878
172,-7
172,-99
172,-98
172,-762
172,-6
172,-760
172,-264
172,-74
172,-428
173,-6
173,-763
173,-430
173,-70
173,-1
173,-265
173,-596
173,-877
173,-3
173,-429
173,-84
173,-5
173,-597
173,-866
173,-428
173,-865
173,-862
173,-88
173,-264
173,-2
173,-83
173,-762
173,0
173,-71
173,-879
173,-87
173,-864
173,-595
173,-4
173,-861
173,-863
173,-878
173,-761
173,-101
173,-7
173,-86
174,-263
174,-595
174,-88
174,-879
174,-3
174,-87
174,-86
174,-429
174,-68
174,-862
174,-264
174,-7
174,0
174,-69
174,-597
174,-84
174,-77
174,-2
174,-265
174,-596
174,-430
174,-762
174,-861
174,-1
174,-70
174,-864
174,-878
174,-4
174,-83
174,-428
174,-5
174,-6
174,-761
174,-763
174,-877
175,0
175,-2
175,-76
175,-84
175,-763
175,-3
175,-68
175,-75
175,-67
175,-878
175,-7
175,-762
175,-429
175,-83
175,-596
175,-1
175,-861
175,-4
175,-265
175,-6
175,-5
175,-71
175,-877
175,-761
175,-428
175,-72
175,-73
175,-70
175,-87
175,-595
175,-879
175,-74
175,-77
175,-69
175,-86
175,-88
175,-264
176,-429
176,-86
176,-4
176,-866
176,-762
176,-877
176,-1
176,-763
176,-2
176,-7
176,-761
176,-878
176,-87
176,-597
176,-6
176,-77
176,-76
176,-861
176,-84
176,-265
176,-430
176,-75
176,-83
176,-5
176,-69
176,-70
176,0
176,-74
176,-596
176,-73
176,-88
176,-428
176,-264
176,-67
176,-879
176,-595
176,-3
176,-68
176,-72
176,-71
176,-263
177,-1
177,-877
177,-84
177,-264
177,-865
177,-94
177,-97
177,-7
177,-83
177,-866
177,-95
177,-99
177,-596
177,-5
177,-101
177,-863
177,-100
177,-96
177,-595
177,-88
177,-761
177,-597
177,-86
177,-98
177,-862
177,-762
177,-77
177,-879
177,-763
177,-263
177,-4
177,-87
177,-878
177,-3
177,-265
177,-861
177,-429
177,-67
177,-430
177,-864
177,-6
177,-2
177,0
178,-87
178,-72
178,-429
178,-264
178,-265
178,-4
178,-86
178,-1
178,-83
178,-879
178,-7
178,-878
178,-75
178,-430
178,-76
178,-101
178,-595
178,-74
178,-762
178,-73
178,-5
178,-861
178,-761
178,-2
178,-428
178,-6
178,-594
178,-760
178,-3
178,-596
178,0
178,-84
178,-877
178,-88
179,-88
179,-879
179,-1
179,-84
179,0
179,-760
179,-76
179,-878
179,-861
179,-877
179,-762
179,-4
179,-6
179,-594
179,-87
179,-3
179,-77
179,-427
179,-429
179,-265
179,-595
179,-86
179,-75
179,-761
179,-72
179,-83
179,-428
179,-71
179,-2
179,-7
179,-596
179,-5
179,-264
180,-6
180,-4
180,-878
180,-5
180,-862
180,-861
180,-70
180,-86
180,-762
180,-866
180,-87
180,-879
180,-3
180,-865
180,-264
180,-77
180,-2
180,-594
180,-429
180,-265
180,-595
180,-761
180,-863
180,-428
180,-83
180,-1
180,-760
180,0
180,-877
180,-596
180,-864
180,-84
180,-88
180,-76
180,-7
181,-263
181,-265
181,-3
181,0
181,-264
181,-429
181,-87
181,-596
181,-77
181,-7
181,-595
181,-761
181,-6
181,-594
181,-5
181,-101
181,-428
181,-86
181,-877
181,-95
181,-760
181,-88
181,-70
181,-1
181,-84
181,-879
181,-76
181,-83
181,-4
181,-878
181,-2
181,-762
182,-4
182,-428
182,-5
182,-263
182,-763
182,-264
182,-83
182,-91
182,-2
182,-6
182,-95
182,-84
182,-92
182,-1
182,-98
182,-100
182,-96
182,-88
182,-76
182,0
182,-86
182,-596
182,-879
182,-762
182,-878
182,-429
182,-71
182,-99
182,-761
182,-262
182,-97
182,-87
182,-72
182,-877
182,-7
182,-595
182,-77
182,-101
182,-3
183,-101
183,-7
183,-877
183,-2
183,-879
183,-428
183,-5
183,-71
183,-596
183,0
183,-863
183,-763
183,-595
183,-3
183,-597
183,-762
183,-263
183,-761
183,-83
183,-87
183,-864
183,-264
183,-84
183,-878
183,-265
183,-4
183,-72
183,-88
183,-6
183,-429
183,-1
183,-86
184,-761
184,-1
184,-428
184,-97
184,-763
184,0
184,-88
184,-84
184,-264
184,-3
184,-597
184,-861
184,-98
184,-877
184,-596
184,-429
184,-96
184,-4
184,-2
184,-860
184,-6
184,-87
184,-262
184,-5
184,-7
184,-263
184,-86
184,-878
184,-83
184,-762
184,-99
184,-879
185,-878
185,-3
185,-762
185,-264
185,-98
185,0
185,-84
185,-597
185,-87
185,-6
185,-1
185,-4
185,-263
185,-430
185,-86
185,-83
185,-764
185,-429
185,-99
185,-879
185,-100
185,-598
185,-877
185,-101
185,-7
185,-5
185,-428
185,-262
185,-97
185,-596
185,-2
185,-763
185,-96
185,-88
186,-2
186,-3
186,-84
186,-86
186,0
186,-4
186,-866
186,-594
186,-879
186,-760
186,-761
186,-762
186,-95
186,-763
186,-865
186,-87
186,-764
186,-862
186,-5
186,-88
186,-73
186,-74
186,-75
186,-262
186,-76
186,-263
186,-430
186,-83
186,-264
186,-265
186,-429
186,-72
186,-595
186,-428
186,-598
186,-877
186,-1
186,-597
186,-6
186,-878
186,-596
186,-7
186,-101
187,-878
187,-84
187,-88
187,-595
187,-71
187,-1
187,-266
187,-86
187,-75
187,-265
187,-76
187,-7
187,-263
187,-3
187,-429
187,-83
187,-861
187,-264
187,0
187,-6
187,-77
187,-877
187,-87
187,-762
187,-863
187,-760
187,-2
187,-879
187,-597
187,-596
187,-428
187,-101
187,-763
187,-594
187,-4
187,-5
187,-761
188,-861
188,-878
188,-101
188,-265
188,-84
188,-879
188,-5
188,-264
188,0
188,-428
188,-429
188,-863
188,-761
188,-877
188,-88
188,-864
188,-3
188,-4
188,-70
188,-597
188,-1
188,-763
188,-86
188,-7
188,-95
188,-77
188,-2
188,-762
188,-263
188,-596
188,-83
188,-595
188,-6
188,-87
189,-597
189,-263
189,-264
189,-98
189,-595
189,-1
189,-86
189,-3
189,-70
189,-5
189,-100
189,-762
189,-99
189,-864
189,-878
189,0
189,-429
189,-879
189,-88
189,-265
189,-7
189,-96
189,-428
189,-4
189,-2
189,-763
189,-83
189,-865
189,-97
189,-596
189,-77
189,-87
189,-101
189,-877
189,-84
189,-6
189,-761
190,-761
190,-762
190,-4
